Time(s),out1,out2,out3
0,163.07391,-99.949417,-100.74313
0.003906301,163.18062,-104.37176,-102.63869
0.007812602,163.20671,-103.38576,-101.22101
0.011718903,163.32153,-101.6832,-103.12327
0.015625203,163.11765,-100.94536,-101.06968
0.019531504,163.84637,-104.80185,-101.20393
0.023437805,163.39365,-100.11646,-99.450729
0.027344106,163.46432,-102.10697,-98.037666
0.031250407,163.58287,-102.91599,-98.069969
0.035156708,163.25687,-100.42102,-96.87883
0.039063009,163.34341,-103.80768,-95.793381
0.042969309,163.58858,-103.19412,-96.417953
0.04687561,163.4333,-101.41137,-93.911804
0.050781911,163.31413,-102.20037,-93.127647
0.054688212,163.65181,-101.11786,-90.118057
0.058594513,163.49237,-102.58483,-89.506813
0.062500814,163.39581,-100.04576,-88.85495
0.066407115,163.49257,-99.599342,-87.244637
0.070313416,163.36543,-103.16003,-87.034004
0.074219716,163.14542,-101.79419,-85.91317
0.078126017,163.56831,-104.56596,-84.147682
0.082032318,163.24315,-104.18864,-80.383553
0.085938619,163.38542,-103.91295,-82.243904
0.08984492,163.27814,-102.39223,-82.491684
0.093751221,163.09921,-103.61633,-81.92231
0.097657522,163.24332,-103.20123,-80.485481
0.101563822,163.51242,-99.709023,-81.625557
0.105470123,163.4156,-101.68919,-81.032562
0.109376424,163.3127,-101.56768,-81.45755
0.113282725,163.50255,-104.40707,-81.199249
0.117189026,163.06676,-104.92385,-82.409225
0.121095327,163.1293,-101.41009,-81.450233
0.125001628,163.23752,-100.94788,-84.163567
0.128907928,163.34483,-99.02317,-83.722961
0.132814229,163.37074,-101.15424,-84.599205
0.13672053,163.17618,-102.84975,-86.342529
0.140626831,163.41183,-105.74147,-86.866951
0.144533132,163.37305,-105.0937,-86.778221
0.148439433,163.16075,-102.85264,-86.183304
0.152345734,163.34128,-102.3962,-85.55143
0.156252035,163.26454,-103.9278,-88.721992
0.160158335,163.42859,-102.66449,-87.422806
0.164064636,163.37822,-102.26544,-89.817299
0.167970937,163.19998,-102.15616,-90.507675
0.171877238,163.50049,-100.87643,-90.245941
0.175783539,163.33076,-106.05033,-92.029007
0.17968984,163.49486,-102.63588,-92.084366
0.183596141,163.31424,-102.41873,-92.611481
0.187502441,163.59114,-103.5125,-93.14064
0.191408742,163.75597,-104.27997,-92.976837
0.195315043,163.51395,-101.44005,-93.814934
0.199221344,163.41167,-102.15245,-94.684837
0.203127645,163.53358,-99.742104,-96.399254
0.207033946,163.40527,-101.8089,-94.79847
0.210940247,163.71715,-102.73505,-96.263885
0.214846547,163.37489,-99.364639,-95.309471
0.218752848,163.59703,-102.13643,-95.683495
0.222659149,163.26884,-104.3783,-97.267952
0.22656545,163.49585,-101.08365,-98.434135
0.230471751,163.35129,-104.82243,-95.899406
0.234378052,163.87137,-102.46244,-100.75249
0.238284353,163.7373,-100.60591,-96.924377
0.242190654,163.24774,-100.93637,-97.089409
0.246096954,163.67668,-103.60171,-99.459442
0.250003255,163.41064,-103.60734,-97.964622
0.253909556,163.54393,-102.83671,-97.207581
0.257815857,163.54922,-100.77129,-100.58723
0.261722158,163.36827,-101.64431,-98.965744
0.265628459,163.06938,-105.20451,-98.163025
0.26953476,163.24019,-102.68985,-97.959274
0.27344106,163.41676,-103.00418,-98.196747
0.277347361,163.24762,-105.20316,-99.910065
0.281253662,163.41658,-100.60525,-102.26916
0.285159963,163.13249,-101.08021,-98.382675
0.289066264,163.35439,-102.57236,-99.655197
0.292972565,163.15048,-103.29452,-99.296577
0.296878866,163.11681,-104.60278,-100.25886
0.300785166,163.57544,-101.987,-97.881538
0.304691467,163.13602,-102.31019,-95.840569
0.308597768,163.26904,-103.87362,-96.628006
0.312504069,163.1552,-104.37331,-95.348915
0.31641037,163.21834,-105.0937,-98.015984
0.320316671,163.11795,-102.81657,-97.676178
0.324222972,163.15869,-103.40717,-97.08136
0.328129273,162.9724,-102.96333,-97.715111
0.332035573,163.32693,-104.1515,-95.718109
0.335941874,163.30884,-103.03216,-94.222527
0.339848175,162.9203,-104.21736,-95.689087
0.343754476,163.06117,-99.517029,-94.439445
0.347660777,163.0562,-100.87795,-95.987274
0.351567078,163.16933,-104.59502,-94.854362
0.355473379,163.13243,-101.07018,-94.00473
0.359379679,163.18407,-103.4696,-94.55378
0.36328598,162.85297,-101.70985,-94.771446
0.367192281,163.11021,-104.38707,-95.688545
0.371098582,163.03038,-102.59013,-94.632751
0.375004883,163.13571,-104.19463,-93.170494
0.378911184,163.07982,-100.92722,-93.947983
0.382817485,163.23891,-102.63872,-94.143089
0.386723785,163.23299,-105.03102,-93.602837
0.390630086,163.11266,-104.87585,-93.4105
0.394536387,163.01872,-102.64587,-92.422729
0.398442688,163.28238,-100.2009,-93.126106
0.402348989,163.27264,-100.56734,-93.06765
0.40625529,163.25871,-105.17152,-95.035789
0.410161591,163.34398,-102.18395,-89.545547
0.414067892,163.09503,-103.56989,-92.532722
0.417974192,163.35445,-102.7094,-93.048935
0.421880493,163.12099,-100.80151,-92.488914
0.425786794,163.30615,-106.66642,-93.656303
0.429693095,163.14178,-101.56233,-91.002365
0.433599396,163.16353,-102.79549,-93.644958
0.437505697,163.21848,-103.06289,-90.873322
0.441411998,163.25012,-103.86116,-90.837494
0.445318298,163.21472,-100.52609,-92.791336
0.449224599,163.1694,-104.83841,-93.669922
0.4531309,163.17291,-103.51542,-90.21228
0.457037201,163.32889,-102.66406,-92.691383
0.460943502,163.22858,-103.71497,-93.74379
0.464849803,163.26721,-103.48191,-93.376518
0.468756104,163.35831,-105.56583,-90.184967
0.472662404,163.83928,-100.74493,-92.675713
0.476568705,163.51227,-104.36913,-92.034996
0.480475006,163.49608,-102.55836,-91.180206
0.484381307,163.41965,-105.30717,-90.412857
0.488287608,163.79062,-104.30779,-90.345131
0.492193909,163.34633,-104.30379,-90.551399
0.49610021,163.62381,-106.99331,-90.690102
0.500006511,163.59869,-104.89266,-91.51683
0.503912811,163.57175,-105.13183,-90.679306
0.507819112,163.67137,-102.97643,-92.797668
0.511725413,163.73825,-105.37897,-93.685791
0.515631714,163.70422,-106.40646,-92.45649
0.519538015,163.54335,-106.36466,-91.409416
0.523444316,163.94922,-103.52276,-91.565643
0.527350617,163.92366,-103.10201,-89.244728
0.531256917,163.73119,-101.80814,-91.740784
0.535163218,163.98215,-103.55311,-90.592194
0.539069519,163.90398,-103.52847,-90.338821
0.54297582,163.98732,-107.79606,-91.333023
0.546882121,163.94325,-103.39592,-94.27224
0.550788422,164.02731,-104.66089,-91.031837
0.554694723,164.35347,-104.4499,-90.103371
0.558601023,164.20615,-103.48755,-91.219231
0.562507324,164.03835,-102.30762,-94.202011
0.566413625,164.41168,-104.94363,-88.763306
0.570319926,164.27049,-105.35561,-90.44278
0.574226227,164.27118,-102.63039,-90.333168
0.578132528,164.14212,-104.54361,-90.146126
0.582038829,164.54935,-105.42841,-91.210304
0.585945129,163.79733,-106.05413,-91.099731
0.58985143,163.95718,-102.94769,-90.961197
0.593757731,164.00629,-102.30473,-90.647003
0.597664032,163.88663,-102.91511,-89.592056
0.601570333,163.77493,-104.53478,-92.248863
0.605476634,163.16496,-106.32256,-88.625374
0.609382935,163.04903,-103.90812,-89.640182
0.613289236,163.03421,-102.47298,-86.719795
0.617195536,163.033,-104.50912,-88.803085
0.621101837,162.92799,-103.45741,-86.117546
0.625008138,162.75244,-105.06608,-86.972031
0.628914439,162.74988,-104.29643,-85.563126
0.63282074,162.90741,-104.25941,-85.181572
0.636727041,162.58102,-106.40827,-84.972755
0.640633342,162.51138,-104.31812,-83.800919
0.644539642,162.66318,-104.39659,-82.178032
0.648445943,162.78456,-104.45514,-81.567314
0.652352244,162.72531,-108.22639,-82.661011
0.656258545,162.98911,-103.29298,-81.943123
0.660164846,162.96275,-103.40986,-81.096664
0.664071147,162.83051,-104.93245,-80.041252
0.667977448,163.15097,-105.94942,-79.155632
0.671883748,163.02005,-103.0091,-79.770897
0.675790049,163.45638,-103.98679,-81.370567
0.67969635,163.45811,-107.49446,-81.328888
0.683602651,163.86565,-99.477142,-83.165184
0.687508952,163.63863,-103.65753,-83.814583
0.691415253,163.68079,-106.22874,-82.670021
0.695321554,163.7132,-106.54131,-82.813881
0.699227855,164.16524,-104.74763,-81.823914
0.703134155,164.16124,-102.68499,-83.312088
0.707040456,164.20047,-106.2501,-83.173607
0.710946757,164.43481,-104.75581,-84.18737
0.714853058,164.51909,-106.4444,-83.782646
0.718759359,164.22615,-105.70856,-85.573303
0.72266566,164.47331,-107.98466,-85.120422
0.726571961,164.47217,-104.66635,-84.44223
0.730478261,164.60973,-101.95047,-85.349403
0.734384562,164.81541,-105.73734,-82.326942
0.738290863,164.50235,-105.25053,-84.99601
0.742197164,164.64119,-104.59974,-87.775215
0.746103465,164.71335,-105.87589,-84.742676
0.750009766,164.52596,-106.08446,-85.196083
0.753916067,164.70648,-102.49294,-86.506363
0.757822367,164.62146,-104.19731,-86.583344
0.761728668,165.09509,-104.76588,-84.103813
0.765634969,164.78337,-108.01749,-86.935509
0.76954127,164.90555,-103.6403,-85.768745
0.773447571,164.75566,-105.24754,-87.73307
0.777353872,164.76207,-109.42976,-86.284836
0.781260173,164.66621,-106.16801,-85.744843
0.785166474,164.8248,-106.70818,-85.693573
0.789072774,164.6053,-108.99822,-87.252121
0.792979075,164.73315,-106.41232,-88.652504
0.796885376,164.66438,-105.44376,-88.719337
0.800791677,164.66118,-104.70557,-87.652588
0.804697978,164.59749,-105.59621,-85.128632
0.808604279,164.7162,-107.2313,-85.472755
0.81251058,164.55428,-105.30727,-86.360268
0.81641688,164.8213,-106.35221,-87.206932
0.820323181,164.72488,-107.09755,-85.686928
0.824229482,164.57063,-108.90185,-86.35302
0.828135783,164.48793,-107.0824,-85.962784
0.832042084,164.37857,-106.0747,-87.164001
0.835948385,164.76001,-110.3888,-85.140678
0.839854686,164.31786,-105.46419,-86.405807
0.843760986,164.52983,-101.27059,-88.116127
0.847667287,164.32793,-105.80156,-85.132782
0.851573588,164.47893,-103.62916,-85.413284
0.855479889,164.21825,-106.79527,-85.58255
0.85938619,164.36311,-101.7362,-87.069954
0.863292491,164.3756,-106.67046,-85.765572
0.867198792,164.31178,-106.2689,-87.938667
0.871105093,164.10606,-106.94151,-86.89846
0.875011393,164.19727,-106.09933,-88.59375
0.878917694,164.37561,-103.63148,-86.986641
0.882823995,163.96472,-108.57391,-85.616402
0.886730296,164.14961,-105.36801,-86.940247
0.890636597,163.92104,-103.21062,-87.01281
0.894542898,164.12616,-107.54707,-87.811493
0.898449199,164.16922,-107.03252,-86.217842
0.902355499,164.31201,-103.66533,-84.852615
0.9062618,163.76714,-110.11221,-84.795212
0.910168101,163.9337,-106.25089,-88.784187
0.914074402,164.02968,-109.23745,-85.103584
0.917980703,163.97632,-103.73987,-87.350693
0.921887004,163.88623,-111.19289,-87.453156
0.925793305,164.09059,-106.37373,-87.067863
0.929699605,163.94571,-104.70534,-86.901054
0.933605906,163.98573,-104.39108,-85.790276
0.937512207,163.98569,-107.97256,-86.247841
0.941418508,163.97318,-106.60962,-87.795311
0.945324809,163.66284,-108.93534,-87.50705
0.94923111,163.92583,-107.33083,-86.385399
0.953137411,163.71875,-106.68967,-87.656693
0.957043712,163.73149,-102.99737,-88.552879
0.960950012,163.5663,-107.40693,-88.834183
0.964856313,163.52092,-107.16576,-88.690575
0.968762614,163.49832,-108.45741,-86.678123
0.972668915,163.62447,-106.46794,-86.862915
0.976575216,163.78773,-104.28093,-88.787537
0.980481517,163.32819,-108.17145,-87.601662
0.984387818,163.47456,-106.11673,-89.26046
0.988294118,163.26073,-105.44294,-88.944366
0.992200419,163.1951,-104.33713,-88.288666
0.99610672,163.49115,-110.80461,-87.966438
1.000013021,163.42625,-104.52151,-90.125763
1.003919322,163.15039,-106.00797,-87.74369
1.007825623,163.31096,-104.34254,-89.981873
1.011731924,163.16699,-106.09242,-87.659607
1.015638224,163.00613,-107.39923,-89.058067
1.019544525,163.18137,-104.37486,-89.72657
1.023450826,163.09494,-104.5483,-88.683807
1.027357127,163.11087,-107.48593,-87.6241
1.031263428,162.75673,-103.88107,-89.443672
1.035169729,162.83899,-103.15115,-91.256195
1.03907603,162.8726,-107.93187,-89.497772
1.04298233,162.91193,-108.147,-91.326897
1.046888631,163.0202,-104.37732,-89.343658
1.050794932,163.05005,-103.48703,-88.093414
1.054701233,162.8786,-101.93996,-87.625587
1.058607534,162.9509,-108.38857,-89.149071
1.062513835,162.89371,-107.87385,-91.538338
1.066420136,162.76489,-106.86574,-90.18074
1.070326437,162.78117,-104.08617,-90.313339
1.074232737,162.85756,-107.55852,-91.025513
1.078139038,162.83815,-105.18359,-90.699524
1.082045339,162.76729,-105.49208,-89.402901
1.08595164,162.77058,-108.03273,-89.638077
1.089857941,162.90366,-103.89516,-88.983665
1.093764242,162.93701,-108.26145,-90.189575
1.097670543,163.06898,-107.83811,-89.722107
1.101576843,162.6629,-105.7277,-88.684471
1.105483144,162.92014,-105.53431,-90.375191
1.109389445,162.85744,-106.6135,-87.662071
1.113295746,162.51474,-103.85875,-90.829918
1.117202047,162.93246,-106.66811,-89.238434
1.121108348,162.381,-102.91272,-88.87825
1.125014649,162.78091,-103.93031,-88.935524
1.128920949,162.49512,-105.34927,-89.296158
1.13282725,162.65376,-104.79848,-89.347321
1.136733551,162.84648,-104.54506,-89.314514
1.140639852,162.74936,-104.32715,-88.881233
1.144546153,162.56232,-103.19163,-89.906219
1.148452454,162.50594,-106.52065,-88.890121
1.152358755,162.92746,-105.00236,-89.320923
1.156265056,162.60974,-104.57906,-87.894035
1.160171356,162.76799,-104.03896,-89.151245
1.164077657,162.79762,-106.05151,-88.190109
1.167983958,162.92259,-103.93153,-87.166779
1.171890259,162.6375,-105.20914,-87.93589
1.17579656,163.03667,-106.22172,-87.985954
1.179702861,162.77292,-104.40359,-89.738831
1.183609162,162.91023,-103.4962,-88.620781
1.187515462,163.06586,-105.26388,-85.25428
1.191421763,162.93759,-108.68305,-87.492096
1.195328064,163.11852,-104.91566,-86.284378
1.199234365,163.36147,-102.61282,-88.724075
1.203140666,163.3374,-102.7887,-86.210159
1.207046967,163.2984,-107.62831,-86.032921
1.210953268,163.28082,-103.70544,-87.31897
1.214859568,163.13612,-106.48982,-87.155464
1.218765869,162.93741,-104.12251,-86.192375
1.22267217,163.10991,-105.41703,-85.414856
1.226578471,163.27477,-102.36908,-86.909714
1.230484772,163.10851,-100.7479,-86.625839
1.234391073,163.17886,-104.89418,-87.501808
1.238297374,163.00209,-102.35116,-86.78447
1.242203675,163.26541,-104.17212,-87.824295
1.246109975,163.00914,-104.9688,-88.083214
1.250016276,163.27063,-102.0968,-85.950943
1.253922577,163.549,-105.66031,-86.744247
1.257828878,163.78925,-103.28072,-85.928696
1.261735179,163.5619,-103.98325,-87.431618
1.26564148,163.30675,-107.46687,-85.740448
1.269547781,163.32408,-100.51893,-82.987442
1.273454081,163.56914,-102.93675,-85.770615
1.277360382,163.38483,-103.29108,-85.534607
1.281266683,163.15593,-102.71416,-86.684418
1.285172984,163.13583,-106.0991,-85.477768
1.289079285,163.0358,-104.13466,-85.088455
1.292985586,163.30109,-103.06215,-83.223122
1.296891887,163.21759,-106.4104,-87.63105
1.300798187,163.21486,-103.09771,-85.580894
1.304704488,163.2722,-106.38485,-85.947426
1.308610789,163.02956,-98.932076,-84.509361
1.31251709,163.03418,-101.95081,-87.150116
1.316423391,163.34825,-102.74472,-84.62558
1.320329692,163.24332,-103.73038,-87.526199
1.324235993,163.30293,-102.29408,-83.377258
1.328142294,163.24692,-104.34212,-87.435883
1.332048594,163.43637,-103.13122,-87.607208
1.335954895,163.42926,-102.58949,-86.518364
1.339861196,163.67905,-105.08085,-87.093826
1.343767497,163.47859,-104.13911,-85.249954
1.347673798,163.51784,-101.26009,-87.767647
1.351580099,163.60574,-102.22327,-87.990005
1.3554864,163.43898,-105.88152,-86.720856
1.3593927,163.38184,-102.03838,-86.308746
1.363299001,163.20158,-105.16672,-87.753456
1.367205302,163.18161,-101.24026,-86.770973
1.371111603,162.90894,-102.49098,-86.707336
1.375017904,163.15361,-105.14754,-85.62941
1.378924205,163.13983,-103.61471,-85.872452
1.382830506,163.18788,-106.94676,-84.682999
1.386736806,163.08937,-103.05834,-86.031258
1.390643107,162.92329,-102.35692,-87.154396
1.394549408,162.95042,-103.85274,-87.927803
1.398455709,162.80945,-100.98426,-87.412796
1.40236201,163.17168,-105.56978,-86.398178
1.406268311,162.94539,-107.3113,-86.262611
1.410174612,163.11255,-105.43386,-89.811668
1.414080913,163.24284,-106.25731,-88.241669
1.417987213,163.02293,-99.726585,-87.647888
1.421893514,163.2565,-103.50597,-88.249855
1.425799815,163.30913,-104.51919,-86.39621
1.429706116,163.09735,-108.77508,-90.288521
1.433612417,163.1991,-104.788,-87.171127
1.437518718,162.91974,-105.76915,-87.892502
1.441425019,162.99789,-102.18488,-87.686363
1.445331319,163.11813,-101.53377,-89.342606
1.44923762,163.02351,-102.64678,-88.966827
1.453143921,163.0143,-102.96363,-87.286377
1.457050222,162.78302,-101.27921,-90.403732
1.460956523,162.87886,-101.96093,-88.27076
1.464862824,162.78578,-101.33459,-89.109985
1.468769125,162.71683,-103.57185,-86.21917
1.472675425,162.64148,-100.5647,-89.507057
1.476581726,163.08096,-104.03937,-89.011093
1.480488027,162.97603,-101.96272,-90.414291
1.484394328,162.82436,-105.71503,-90.330841
1.488300629,163.04314,-102.05854,-90.413971
1.49220693,162.75954,-103.33743,-90.132378
1.496113231,162.85977,-104.74863,-89.831604
1.500019532,162.98553,-104.23642,-89.790009
1.503925832,162.67445,-107.07107,-90.043343
1.507832133,162.77454,-102.52145,-89.467567
1.511738434,163.01108,-103.07042,-89.519615
1.515644735,163.16565,-106.20407,-89.708023
1.519551036,162.49997,-103.36317,-88.62542
1.523457337,162.97501,-103.57499,-90.06459
1.527363638,162.89526,-102.3149,-89.774658
1.531269938,162.77806,-103.60956,-88.902069
1.535176239,162.92786,-105.11388,-88.032188
1.53908254,162.73685,-100.94454,-90.328125
1.542988841,162.62498,-103.73646,-88.707092
1.546895142,162.84456,-104.10192,-90.744881
1.550801443,162.8241,-103.31019,-90.693581
1.554707744,163.26633,-101.77988,-89.47036
1.558614044,162.75226,-104.68259,-89.268471
1.562520345,162.73875,-103.44001,-90.457687
1.566426646,162.97081,-101.57936,-90.882805
1.570332947,162.85963,-103.33498,-88.981049
1.574239248,162.8622,-103.15936,-91.138329
1.578145549,162.62445,-103.34187,-90.228142
1.58205185,162.94659,-101.9554,-88.384193
1.58595815,162.86363,-102.0127,-89.309616
1.589864451,163.00424,-105.1586,-90.922249
1.593770752,162.66455,-106.17436,-89.284698
1.597677053,162.78592,-100.08501,-90.731804
1.601583354,162.75427,-98.737411,-89.282715
1.605489655,162.66202,-102.38012,-89.585838
1.609395956,162.47226,-101.62321,-87.661011
1.613302257,162.56979,-102.70901,-89.114708
1.617208557,162.62549,-100.79887,-90.687248
1.621114858,162.72498,-100.4989,-88.060837
1.625021159,162.3605,-105.13898,-89.800087
1.62892746,162.63885,-102.0528,-90.968719
1.632833761,162.78407,-102.31083,-89.12764
1.636740062,162.42894,-104.25787,-90.616882
1.640646363,162.54593,-103.9519,-91.077454
1.644552663,162.97946,-104.28996,-86.798752
1.648458964,162.61792,-103.44215,-90.19735
1.652365265,162.56317,-103.57452,-89.11689
1.656271566,162.49931,-102.37087,-88.096413
1.660177867,162.82265,-100.73022,-90.051895
1.664084168,162.40645,-104.60719,-87.59687
1.667990469,162.5984,-103.14761,-89.614738
1.671896769,162.62245,-106.97759,-86.319252
1.67580307,162.7001,-103.43405,-88.747864
1.679709371,162.73576,-103.49633,-87.007469
1.683615672,162.89168,-105.31518,-87.132561
1.687521973,162.72707,-103.03874,-84.398056
1.691428274,163.04343,-102.27901,-86.894012
1.695334575,162.74287,-102.56744,-87.423378
1.699240876,162.70419,-104.17642,-85.542732
1.703147176,163.06743,-103.64376,-85.080856
1.707053477,162.62167,-101.80325,-84.348541
1.710959778,163.21431,-103.97034,-86.484474
1.714866079,162.80449,-104.22544,-88.700226
1.71877238,163.15068,-104.36256,-85.547913
1.722678681,163.233,-104.781,-84.552002
1.726584982,163.06691,-104.53753,-84.525238
1.730491282,163.28679,-102.10365,-85.276459
1.734397583,163.0351,-106.77067,-86.277641
1.738303884,163.07217,-103.07148,-87.436508
1.742210185,163.31287,-105.48719,-84.165802
1.746116486,163.20448,-102.00848,-85.747574
1.750022787,163.64256,-102.45206,-85.584984
1.753929088,163.63011,-102.64483,-84.420029
1.757835388,163.3243,-101.1985,-85.409378
1.761741689,163.86493,-105.36086,-86.911263
1.76564799,163.72298,-105.68427,-87.535141
1.769554291,163.83868,-103.97221,-84.201035
1.773460592,163.7997,-103.69226,-88.850349
1.777366893,163.63535,-102.20689,-86.791618
1.781273194,163.70274,-103.48331,-86.637863
1.785179495,163.75127,-103.69013,-85.979774
1.789085795,163.9386,-103.38284,-86.382645
1.792992096,163.59608,-104.61593,-86.448128
1.796898397,163.86707,-102.67264,-88.303551
1.800804698,163.51485,-101.94886,-88.046295
1.804710999,163.74873,-105.38168,-88.397224
1.8086173,163.52843,-101.94491,-90.591072
1.812523601,163.6922,-102.11897,-89.558838
1.816429901,163.65863,-103.40273,-89.973473
1.820336202,163.75232,-103.6041,-90.839264
1.824242503,164.04683,-102.9605,-88.640236
1.828148804,163.66084,-106.43226,-88.098251
1.832055105,163.45016,-104.70871,-89.884995
1.835961406,163.67825,-103.66604,-90.989471
1.839867707,163.60139,-103.16982,-90.367485
1.843774007,163.76158,-106.60735,-90.756065
1.847680308,163.61415,-100.7494,-92.285126
1.851586609,163.62376,-103.06163,-92.132248
1.85549291,163.8253,-103.30431,-89.633842
1.859399211,163.7036,-101.77502,-88.197609
1.863305512,163.52742,-104.17539,-93.084274
1.867211813,163.8558,-103.21883,-92.168182
1.871118114,163.73061,-104.09093,-94.714645
1.875024414,163.94852,-102.30804,-94.209167
1.878930715,163.78876,-101.38329,-93.631912
1.882837016,163.73755,-105.39063,-93.697205
1.886743317,163.85818,-102.20252,-95.549355
1.890649618,164.18893,-108.12068,-95.085999
1.894555919,163.84326,-104.89865,-94.889839
1.89846222,163.6548,-103.74872,-95.020218
1.90236852,164.02252,-102.53027,-98.785782
1.906274821,164.06056,-102.84099,-97.861153
1.910181122,163.95023,-102.17864,-97.52272
1.914087423,164.09453,-103.16483,-98.638138
1.917993724,164.24519,-101.70864,-99.252243
1.921900025,163.83401,-106.22233,-97.704277
1.925806326,163.64252,-102.61182,-99.885864
1.929712626,163.78845,-103.53465,-100.32611
1.933618927,163.83223,-102.40709,-97.849602
1.937525228,163.93137,-101.09552,-100.91289
1.941431529,163.94116,-104.23617,-99.38633
1.94533783,163.51949,-106.01673,-102.57454
1.949244131,163.96335,-98.823196,-102.05041
1.953150432,163.9756,-104.60033,-103.64783
1.957056733,163.69089,-103.54336,-101.7754
1.960963033,163.64438,-100.1353,-103.98337
1.964869334,163.72668,-100.534,-105.76324
1.968775635,163.92145,-103.78759,-103.17327
1.972681936,164.01051,-103.49224,-103.03133
1.976588237,163.59869,-101.78268,-104.15773
1.980494538,163.83575,-105.48964,-103.40606
1.984400839,163.94839,-102.68771,-104.50363
1.988307139,163.82436,-101.2327,-106.89704
1.99221344,163.9892,-102.10068,-102.75063
1.996119741,164.08289,-104.11076,-104.68676
2.000026042,163.56772,-103.07693,-104.857
2.003932343,163.74724,-103.11777,-107.55708
2.007838644,163.76895,-103.60229,-105.12386
2.011744945,163.87903,-99.340279,-106.04691
2.015651245,164.11101,-101.38364,-104.7573
2.019557546,164.34402,-101.38763,-105.23335
2.023463847,164.54636,-102.30842,-105.70281
2.027370148,164.60464,-101.72352,-105.77972
2.031276449,164.37613,-102.99606,-104.38985
2.03518275,164.40939,-102.56557,-107.56055
2.039089051,164.50226,-99.843239,-108.42661
2.042995352,164.65707,-102.92974,-103.78569
2.046901652,164.60597,-101.13633,-105.78041
2.050807953,164.46037,-102.32568,-103.74422
2.054714254,164.64247,-99.109612,-105.58537
2.058620555,164.99738,-100.99127,-103.94355
2.062526856,164.70667,-102.31703,-105.18122
2.066433157,164.93999,-99.275482,-102.69285
2.070339458,164.86507,-104.97975,-104.18733
2.074245758,164.99986,-103.22357,-102.84769
2.078152059,164.95581,-100.51746,-103.47086
2.08205836,165.25146,-100.89678,-104.16838
2.085964661,165.04875,-102.79417,-103.73075
2.089870962,164.79875,-102.17852,-103.68832
2.093777263,165.15143,-103.43465,-104.09663
2.097683564,165.01933,-102.77414,-102.56435
2.101589864,165.13058,-100.13644,-103.21804
2.105496165,164.87962,-103.84726,-100.80202
2.109402466,165.45805,-101.88877,-102.90462
2.113308767,165.4313,-103.95768,-102.37395
2.117215068,165.06247,-102.08939,-101.57079
2.121121369,165.09198,-104.7653,-104.84785
2.12502767,165.19415,-102.12056,-106.34133
2.12893397,165.21498,-101.70031,-103.64259
2.132840271,164.95288,-102.88348,-103.67522
2.136746572,164.8335,-102.53818,-102.0983
2.140652873,165.2626,-103.51758,-102.76227
2.144559174,164.8252,-101.26673,-103.73448
2.148465475,164.68256,-101.00331,-105.29759
2.152371776,164.78001,-102.83792,-104.33392
2.156278077,164.84969,-104.19634,-103.09922
2.160184377,164.88362,-101.5918,-103.1981
2.164090678,164.6062,-102.21088,-104.33084
2.167996979,164.99097,-99.280281,-105.90551
2.17190328,164.78127,-101.36053,-102.88949
2.175809581,164.86578,-101.78326,-103.75879
2.179715882,164.7459,-98.968483,-104.09515
2.183622183,164.69579,-104.21353,-104.02905
2.187528483,164.84131,-99.25576,-102.79226
2.191434784,164.62944,-102.37425,-105.69837
2.195341085,164.51909,-102.7374,-102.80903
2.199247386,164.64966,-101.31311,-103.93926
2.203153687,164.59265,-102.58875,-103.50548
2.207059988,164.52881,-100.99895,-102.57841
2.210966289,164.04886,-100.41704,-104.62709
2.214872589,164.14297,-101.6946,-105.28985
2.21877889,164.03384,-99.346642,-104.82276
2.222685191,164.0782,-102.4035,-103.77299
2.226591492,164.12376,-102.87569,-104.02072
2.230497793,164.28281,-103.549,-104.2423
2.234404094,164.11888,-100.8237,-103.53851
2.238310395,163.90685,-98.8601,-105.64258
2.242216696,163.83159,-101.18243,-104.06526
2.246122996,164.04129,-101.40083,-105.61266
2.250029297,163.55005,-103.11388,-103.18473
2.253935598,163.76019,-102.18327,-105.19176
2.257841899,163.50714,-99.250153,-102.4262
2.2617482,163.60321,-99.283096,-103.89452
2.265654501,163.77318,-101.34043,-105.40704
2.269560802,163.88586,-101.80119,-103.6035
2.273467102,163.59547,-102.64243,-102.72202
2.277373403,163.39903,-102.7393,-103.2394
2.281279704,163.58997,-101.94023,-104.2971
2.285186005,163.83759,-98.958382,-103.44884
2.289092306,163.36308,-103.11515,-100.77913
2.292998607,163.57124,-104.34946,-103.49239
2.296904908,163.48386,-104.14484,-102.44925
2.300811208,163.47984,-103.3427,-102.87521
2.304717509,163.42947,-103.54385,-103.11207
2.30862381,163.83188,-102.56693,-99.366249
2.312530111,163.67957,-101.39503,-101.29902
2.316436412,163.73964,-103.8605,-102.63956
2.320342713,163.51308,-101.28096,-103.52505
2.324249014,163.99422,-102.62137,-101.62637
2.328155315,164.05615,-104.49669,-99.398071
2.332061615,164.11208,-103.61901,-102.46333
2.335967916,163.95828,-102.35967,-102.36581
2.339874217,164.00842,-102.56098,-102.63927
2.343780518,164.03091,-99.031151,-100.66908
2.347686819,164.36887,-104.53463,-102.94115
2.35159312,164.12349,-102.26382,-101.1534
2.355499421,164.42958,-104.73415,-100.05827
2.359405721,164.26941,-104.133,-101.96718
2.363312022,164.75774,-100.31756,-101.15813
2.367218323,164.4805,-100.92494,-102.47243
2.371124624,164.67361,-103.70008,-104.51635
2.375030925,164.53249,-100.71977,-103.72924
2.378937226,165.12495,-101.12401,-103.69485
2.382843527,165.21449,-101.30905,-103.51599
2.386749827,165.31723,-107.14825,-103.185
2.390656128,165.36845,-103.77067,-104.10396
2.394562429,165.37157,-102.66677,-102.24895
2.39846873,165.82042,-98.514084,-102.16263
2.402375031,166.17354,-98.868736,-103.94666
2.406281332,166.17628,-102.49361,-103.16717
2.410187633,166.09247,-100.05898,-105.72567
2.414093934,166.49774,-104.9184,-105.72582
2.418000234,166.59122,-101.06379,-105.2167
2.421906535,166.75793,-101.04328,-106.52038
2.425812836,167.09407,-98.716995,-106.22224
2.429719137,166.96802,-102.10237,-107.29294
2.433625438,167.10667,-104.02784,-106.00912
2.437531739,167.41092,-102.71089,-104.24936
2.44143804,167.56778,-107.60843,-103.16048
2.44534434,167.86845,-100.37272,-103.20621
2.449250641,168.04028,-102.22691,-103.647
2.453156942,168.23726,-103.22318,-99.744019
2.457063243,167.8902,-101.09897,-102.36166
2.460969544,168.16609,-103.20021,-102.77992
2.464875845,168.72345,-103.3708,-102.33411
2.468782146,168.17113,-104.0204,-102.00965
2.472688446,168.07185,-102.55428,-101.82697
2.476594747,168.31357,-102.7259,-106.38699
2.480501048,167.8566,-102.64426,-109.93287
2.484407349,167.49614,-105.27587,-113.5392
2.48831365,167.42993,-104.07684,-113.88191
2.492219951,166.7719,-101.95564,-118.02029
2.496126252,166.44218,-102.00822,-117.05788
2.500032553,165.86115,-102.73215,-117.91307
2.503938853,165.93407,-100.09745,-116.0263
2.507845154,165.86084,-101.82565,-114.92228
2.511751455,165.83072,-103.28809,-114.79164
2.515657756,165.92891,-103.63079,-113.173
2.519564057,165.97043,-104.44869,-116.27071
2.523470358,166.04251,-101.92838,-113.82571
2.527376659,166.00801,-102.46487,-117.87127
2.531282959,166.14355,-102.87098,-116.62064
2.53518926,166.71254,-103.19233,-117.77206
2.539095561,166.65849,-103.09242,-115.27652
2.543001862,166.82739,-101.3078,-117.13129
2.546908163,166.76945,-99.37928,-115.70728
2.550814464,167.24043,-105.43902,-119.91979
2.554720765,166.6599,-100.29465,-119.39899
2.558627065,167.00549,-103.65428,-120.10848
2.562533366,166.9826,-102.07264,-121.6021
2.566439667,167.23947,-103.67607,-121.1491
2.570345968,166.90181,-101.20398,-123.99202
2.574252269,166.81018,-100.207,-123.55856
2.57815857,167.09943,-101.28161,-124.98724
2.582064871,166.96584,-103.84713,-123.66742
2.585971171,167.03159,-97.415352,-125.02357
2.589877472,166.91852,-106.3004,-125.79446
2.593783773,167.32339,-104.46738,-125.60963
2.597690074,167.55675,-102.48062,-124.62749
2.601596375,167.26846,-98.969978,-125.43013
2.605502676,167.04906,-103.13324,-127.00563
2.609408977,167.17113,-100.64696,-124.94946
2.613315278,167.2722,-102.48196,-124.04798
2.617221578,167.43074,-105.33864,-121.16779
2.621127879,166.97461,-104.89105,-117.62549
2.62503418,167.31499,-100.788,-117.50758
2.628940481,167.01781,-103.00491,-118.15836
2.632846782,167.39854,-101.45461,-115.95145
2.636753083,167.8669,-102.1798,-119.42583
2.640659384,167.75505,-102.66129,-116.27304
2.644565684,167.8414,-104.06203,-118.9571
2.648471985,167.90613,-103.44389,-114.48055
2.652378286,168.0916,-101.77511,-119.49615
2.656284587,168.38258,-104.34447,-119.01763
2.660190888,167.91193,-105.20374,-121.12614
2.664097189,167.94966,-102.12918,-119.85597
2.66800349,167.39632,-101.32127,-119.6526
2.67190979,167.103,-103.67265,-121.97192
2.675816091,166.89474,-100.49362,-121.72889
2.679722392,166.74849,-102.74697,-121.56448
2.683628693,166.73177,-102.24834,-124.39245
2.687534994,167.2606,-102.00689,-119.45284
2.691441295,166.98984,-105.21753,-118.33942
2.695347596,167.92191,-102.71288,-122.37702
2.699253897,168.0466,-99.091911,-122.82552
2.703160197,167.98309,-103.53058,-124.07469
2.707066498,168.12338,-106.73748,-128.32719
2.710972799,167.97797,-107.23256,-127.60275
2.7148791,167.56128,-102.10535,-131.11209
2.718785401,167.38124,-101.63651,-131.41464
2.722691702,167.16025,-102.2194,-132.77119
2.726598003,166.45883,-103.3532,-131.35239
2.730504303,166.45656,-103.37237,-130.17679
2.734410604,166.39023,-101.34434,-127.18154
2.738316905,166.8605,-103.48495,-125.18362
2.742223206,166.5658,-101.51581,-126.70907
2.746129507,167.13254,-103.86208,-126.17682
2.750035808,167.23756,-103.5028,-127.79992
2.753942109,167.01468,-102.87709,-129.73015
2.757848409,166.46249,-101.95423,-131.3306
2.76175471,165.64706,-103.65065,-133.70396
2.765661011,165.43901,-104.40171,-130.39874
2.769567312,165.47757,-100.2002,-129.11465
2.773473613,166.75281,-102.11205,-124.00695
2.777379914,168.05177,-101.12013,-118.52741
2.781286215,169.14462,-104.90572,-120.19091
2.785192516,169.26637,-99.85984,-122.25513
2.789098816,168.85051,-103.94083,-125.58382
2.793005117,167.76932,-101.61256,-126.78258
2.796911418,167.21306,-102.67088,-131.55182
2.800817719,166.97853,-103.04347,-129.65456
2.80472402,167.43283,-104.17488,-126.59368
2.808630321,168.05211,-101.29432,-125.81408
2.812536622,167.37347,-104.39804,-121.05867
2.816442922,167.12241,-99.577011,-122.21786
2.820349223,166.27469,-103.71182,-125.52763
2.824255524,165.93129,-104.71454,-128.01385
2.828161825,166.5486,-101.37127,-132.14731
2.832068126,167.35233,-102.65044,-132.84036
2.835974427,168.94217,-102.96696,-128.77771
2.839880728,168.52371,-105.38141,-127.9316
2.843787028,167.95914,-101.72904,-128.92657
2.847693329,167.2002,-100.3651,-131.74937
2.85159963,166.72833,-102.30699,-131.69951
2.855505931,166.32802,-101.32285,-131.95589
2.859412232,166.6078,-106.21451,-133.1011
2.863318533,166.53593,-104.87431,-130.98108
2.867224834,166.27907,-101.96117,-131.2211
2.871131135,165.86517,-102.65346,-134.39722
2.875037435,165.27243,-102.09362,-136.2159
2.878943736,164.78868,-100.94852,-137.62241
2.882850037,164.47531,-103.20058,-142.88797
2.886756338,164.69724,-103.02661,-141.36201
2.890662639,164.77036,-103.306,-139.84674
2.89456894,165.06273,-104.16792,-137.7556
2.898475241,164.85957,-103.78323,-136.54254
2.902381541,165.12137,-100.55808,-135.67395
2.906287842,164.92175,-101.69221,-135.93912
2.910194143,165.21358,-105.27632,-136.5305
2.914100444,165.47453,-105.39402,-134.03333
2.918006745,165.75421,-106.25256,-137.01932
2.921913046,166.06241,-102.6241,-136.74744
2.925819347,166.56474,-101.03961,-133.41452
2.929725647,166.41768,-100.83339,-129.43762
2.933631948,166.68396,-102.61201,-125.79645
2.937538249,166.83266,-102.52916,-124.72957
2.94144455,166.17616,-103.7979,-120.25201
2.945350851,166.25043,-105.20009,-123.5117
2.949257152,166.10678,-106.32789,-120.85005
2.953163453,165.90691,-104.34254,-121.16054
2.957069754,165.99385,-104.28619,-122.8325
2.960976054,166.2193,-104.91338,-122.45779
2.964882355,166.32632,-103.87661,-123.74461
2.968788656,165.79501,-103.43139,-125.74587
2.972694957,165.68448,-104.28146,-123.56878
2.976601258,165.71933,-100.0322,-124.12007
2.980507559,165.77258,-100.14152,-124.12688
2.98441386,165.38031,-103.60368,-121.81783
2.98832016,165.94812,-102.28205,-119.62768
2.992226461,165.58147,-100.43365,-122.51697
2.996132762,165.5706,-101.2104,-119.11402
3.000039063,165.51657,-106.04067,-121.08984
3.003945364,165.57651,-101.8149,-119.01537
3.007851665,165.55827,-100.0157,-119.61071
3.011757966,165.77411,-103.86427,-119.09996
3.015664266,165.26404,-104.55209,-118.60065
3.019570567,165.30264,-103.30024,-116.29386
3.023476868,165.57552,-101.01418,-118.67841
3.027383169,165.51457,-100.98734,-119.35129
3.03128947,165.63924,-103.90155,-118.89523
3.035195771,165.41994,-105.07133,-119.66728
3.039102072,165.5593,-104.51917,-117.87782
3.043008373,165.38121,-103.16106,-119.68177
3.046914673,165.3243,-102.53667,-121.16047
3.050820974,165.58395,-102.85819,-120.54185
3.054727275,165.47018,-102.97635,-121.05095
3.058633576,165.55661,-100.57951,-121.27991
3.062539877,165.64227,-101.76976,-122.84665
3.066446178,165.49789,-102.66713,-122.63791
3.070352479,166.00351,-104.3222,-123.70027
3.074258779,165.80382,-102.56322,-127.30372
3.07816508,165.36139,-104.41805,-125.04812
3.082071381,165.81728,-102.78535,-129.55006
3.085977682,166.14154,-101.64137,-128.67719
3.089883983,165.73183,-103.23946,-129.0737
3.093790284,165.60162,-101.1845,-130.03111
3.097696585,165.81767,-102.03027,-130.99974
3.101602885,166.01953,-104.66661,-131.09549
3.105509186,166.28333,-102.93394,-130.9985
3.109415487,166.19495,-103.45202,-131.37645
3.113321788,166.08119,-104.76575,-132.3277
3.117228089,166.45483,-103.75848,-134.48367
3.12113439,166.29546,-101.96298,-135.7773
3.125040691,166.58264,-106.13146,-136.61607
3.128946991,167.21957,-106.22072,-134.30676
3.132853292,167.02513,-103.22355,-134.38547
3.136759593,167.06265,-104.20992,-136.56999
3.140665894,166.78886,-103.86771,-135.37724
3.144572195,167.5446,-104.21252,-135.06544
3.148478496,167.726,-104.08964,-137.61589
3.152384797,168.0656,-107.62732,-135.55313
3.156291098,168.06093,-103.00224,-134.54337
3.160197398,168.20387,-103.66956,-134.99387
3.164103699,168.01482,-102.19345,-134.22066
3.16801,168.05646,-104.09283,-135.83344
3.171916301,168.25552,-105.79688,-135.149
3.175822602,168.25185,-103.01098,-135.68405
3.179728903,168.4194,-107.70068,-136.58742
3.183635204,168.39725,-106.27053,-136.68594
3.187541504,168.48869,-102.94782,-135.53151
3.191447805,169.03763,-103.88818,-135.80376
3.195354106,169.08354,-107.24062,-134.39407
3.199260407,169.36159,-104.47491,-137.04614
3.203166708,169.38011,-109.29848,-138.55716
3.207073009,169.54224,-105.47975,-135.59216
3.21097931,169.71025,-105.23836,-137.90454
3.21488561,169.7411,-105.26784,-136.5365
3.218791911,169.52744,-105.57488,-138.98705
3.222698212,169.56026,-105.54667,-136.12967
3.226604513,169.69016,-98.069084,-136.76683
3.230510814,169.60213,-104.99747,-136.19402
3.234417115,169.76093,-105.45541,-135.66463
3.238323416,169.81749,-104.37547,-137.57292
3.242229717,169.68997,-107.72448,-139.13594
3.246136017,169.97369,-103.74992,-136.86174
3.250042318,169.67171,-104.9885,-136.60059
3.253948619,169.84442,-109.0858,-135.72356
3.25785492,169.97237,-102.71026,-137.56369
3.261761221,170.12529,-104.58957,-136.33217
3.265667522,170.15273,-104.90211,-137.6974
3.269573823,169.67908,-106.56195,-139.00287
3.273480123,170.03017,-107.49322,-137.30733
3.277386424,169.96658,-102.36101,-136.90906
3.281292725,169.72604,-105.60623,-135.64241
3.285199026,169.93987,-107.23323,-138.11984
3.289105327,169.90234,-104.68903,-137.78456
3.293011628,169.69955,-104.30863,-139.49217
3.296917929,169.79718,-106.09519,-138.76143
3.300824229,169.53941,-103.83678,-136.58191
3.30473053,169.99826,-105.62053,-139.73204
3.308636831,169.64854,-103.43583,-137.13834
3.312543132,169.44028,-107.04076,-138.55081
3.316449433,169.61926,-104.12919,-139.80009
3.320355734,169.12766,-105.91096,-140.24112
3.324262035,169.49287,-105.42366,-140.53813
3.328168336,169.38835,-104.96613,-141.03516
3.332074636,169.64622,-108.12748,-140.58884
3.335980937,169.3821,-108.40133,-138.01852
3.339887238,169.23856,-104.17144,-140.77501
3.343793539,169.04718,-105.86231,-141.02451
3.34769984,168.9279,-106.22892,-141.22881
3.351606141,169.05698,-105.49095,-142.30247
3.355512442,168.78114,-106.90332,-143.09154
3.359418742,168.63913,-107.18649,-142.81937
3.363325043,168.46506,-105.91542,-141.40004
3.367231344,168.50272,-105.0636,-142.3602
3.371137645,168.44887,-108.76244,-143.49049
3.375043946,168.37686,-105.65276,-143.84045
3.378950247,167.7359,-106.93123,-141.56342
3.382856548,167.3699,-107.20331,-140.71414
3.386762848,167.42305,-100.61733,-140.10608
3.390669149,167.14539,-108.57687,-139.28319
3.39457545,167.42807,-107.30871,-135.88586
3.398481751,167.18419,-106.79187,-133.70894
3.402388052,167.27695,-104.52944,-131.44676
3.406294353,166.96413,-107.49611,-130.77698
3.410200654,167.5253,-107.72857,-129.42744
3.414106955,167.3425,-107.14132,-130.47423
3.418013255,167.01366,-107.74926,-130.47398
3.421919556,166.80708,-107.34641,-130.40204
3.425825857,167.08072,-105.17046,-134.22241
3.429732158,166.21019,-109.18128,-133.37071
3.433638459,165.63676,-106.43034,-133.00417
3.43754476,165.18431,-107.91753,-133.74922
3.441451061,164.70761,-106.25253,-136.23663
3.445357361,164.74001,-107.86215,-137.23668
3.449263662,164.99205,-107.47662,-135.06816
3.453169963,165.00787,-106.72932,-137.38614
3.457076264,164.66141,-106.19447,-133.44966
3.460982565,164.56271,-108.87825,-132.56464
3.464888866,164.67995,-107.45303,-133.06161
3.468795167,165.34723,-106.38069,-133.64851
3.472701467,165.12192,-105.20216,-137.07031
3.476607768,164.28691,-106.56343,-139.70465
3.480514069,164.05124,-106.81853,-144.12268
3.48442037,163.18138,-106.99471,-144.25284
3.488326671,163.42923,-105.66722,-142.02699
3.492232972,163.77647,-107.3483,-142.26544
3.496139273,163.67473,-104.34646,-143.95554
3.500045574,163.42516,-108.46114,-143.41115
3.503951874,163.70264,-105.28581,-143.86987
3.507858175,163.57275,-105.15578,-143.83191
3.511764476,163.39148,-108.35053,-144.08757
3.515670777,163.87944,-108.19472,-143.30212
3.519577078,164.57137,-105.06474,-145.46422
3.523483379,165.45677,-109.39802,-145.26273
3.52738968,165.5108,-105.394,-144.98579
3.53129598,165.55359,-103.86214,-144.08922
3.535202281,165.05589,-104.827,-145.85356
3.539108582,164.95166,-104.22498,-142.17026
3.543014883,164.8257,-102.39898,-139.23238
3.546921184,165.42413,-104.38833,-136.65681
3.550827485,166.62943,-104.15495,-135.66136
3.554733786,166.6694,-105.57295,-134.78726
3.558640086,166.00661,-104.08668,-134.93019
3.562546387,165.21869,-107.76015,-135.38084
3.566452688,165.06131,-108.15217,-133.29074
3.570358989,165.57303,-107.92411,-131.30493
3.57426529,166.11252,-104.90412,-128.55482
3.578171591,165.32993,-104.94392,-126.88663
3.582077892,164.218,-103.68947,-131.44986
3.585984193,163.55652,-101.9578,-134.59061
3.589890493,163.96678,-103.4356,-134.68866
3.593796794,165.42821,-105.96014,-131.02393
3.597703095,166.63354,-104.12843,-129.6367
3.601609396,166.98494,-106.83616,-129.30383
3.605515697,165.55614,-106.54587,-133.11095
3.609421998,164.605,-104.44229,-138.28108
3.613328299,164.46127,-106.95638,-135.57523
3.617234599,164.59634,-106.16222,-131.80666
3.6211409,164.60359,-105.5833,-130.68135
3.625047201,163.78752,-103.45985,-124.5076
3.628953502,162.53754,-103.02022,-127.61324
3.632859803,162.67188,-103.87665,-130.97818
3.636766104,163.13948,-102.76343,-131.51021
3.640672405,163.89931,-103.54288,-133.74535
3.644578705,164.05916,-103.85911,-132.68335
3.648485006,164.90106,-107.33814,-130.29417
3.652391307,165.03479,-103.14317,-129.8446
3.656297608,164.5369,-104.10459,-129.06392
3.660203909,164.34109,-102.41473,-131.21437
3.66411021,164.0576,-106.92117,-131.49513
3.668016511,163.89743,-104.60791,-130.98309
3.671922811,164.06934,-102.51746,-132.96085
3.675829112,163.85413,-105.9321,-130.5183
3.679735413,164.24803,-107.55846,-131.17854
3.683641714,163.93669,-104.33593,-131.93565
3.687548015,163.4276,-101.8894,-129.24538
3.691454316,163.84387,-102.81554,-131.20084
3.695360617,163.66138,-103.38857,-129.44327
3.699266918,163.46552,-106.48563,-129.53735
3.703173218,163.79536,-102.9332,-130.3522
3.707079519,163.76524,-106.64851,-129.80684
3.71098582,163.96729,-103.53441,-131.43643
3.714892121,163.98653,-100.96685,-132.7157
3.718798422,163.61383,-104.42379,-132.49997
3.722704723,163.48166,-102.22593,-132.5041
3.726611024,163.37886,-102.66594,-131.3855
3.730517324,162.86028,-104.87604,-130.44444
3.734423625,162.70576,-105.29686,-130.54932
3.738329926,162.77519,-102.77077,-128.18755
3.742236227,162.41788,-101.12119,-127.71739
3.746142528,163.06149,-101.84775,-127.42128
3.750048829,162.60997,-103.30517,-128.11916
3.75395513,162.58278,-101.2298,-127.71118
3.75786143,162.48181,-104.36665,-126.84865
3.761767731,162.03004,-104.48994,-124.40299
3.765674032,161.57813,-101.0844,-125.91454
3.769580333,161.75395,-104.86736,-126.04089
3.773486634,161.20648,-103.08166,-124.09998
3.777392935,161.67926,-102.79738,-125.4522
3.781299236,161.82915,-102.3006,-125.11692
3.785205537,162.03418,-102.97182,-123.65408
3.789111837,162.00395,-104.346,-121.14136
3.793018138,162.69046,-102.88552,-120.23322
3.796924439,163.23074,-102.90611,-119.02062
3.80083074,163.65459,-105.17788,-120.04527
3.804737041,163.63538,-103.60719,-120.18538
3.808643342,163.97375,-102.00385,-119.06095
3.812549643,163.43903,-100.49837,-120.96324
3.816455943,163.29059,-103.63292,-120.2075
3.820362244,163.01103,-105.54382,-120.02433
3.824268545,163.24947,-105.00034,-121.89727
3.828174846,162.74553,-103.38681,-123.17457
3.832081147,163.1077,-102.80386,-123.4192
3.835987448,163.127,-103.2571,-123.63134
3.839893749,162.90573,-100.85831,-123.96199
3.843800049,163.26544,-101.22123,-122.0458
3.84770635,163.37843,-104.70948,-123.6675
3.851612651,163.01483,-102.48349,-124.27427
3.855518952,163.6377,-101.64245,-124.41811
3.859425253,163.60091,-106.28579,-125.71304
3.863331554,163.87962,-102.56583,-124.66376
3.867237855,164.10942,-103.2332,-123.52863
3.871144156,164.11208,-102.86447,-123.83402
3.875050456,164.19737,-105.1011,-123.57065
3.878956757,164.43747,-100.99984,-122.54504
3.882863058,164.03252,-103.26298,-123.07697
3.886769359,164.72993,-104.49724,-121.27997
3.89067566,164.51292,-104.42203,-122.97342
3.894581961,164.82748,-104.07758,-121.76181
3.898488262,164.96608,-107.63783,-120.52802
3.902394562,165.12308,-102.20827,-121.43166
3.906300863,165.02989,-101.87327,-120.46632
3.910207164,165.16119,-103.55318,-120.76788
3.914113465,165.13986,-101.62434,-120.34005
3.918019766,164.99623,-103.9878,-120.26683
3.921926067,164.91969,-102.56348,-120.22404
3.925832368,165.01932,-102.72062,-120.18575
3.929738668,165.17024,-104.32233,-118.83685
3.933644969,165.06511,-104.40012,-120.45177
3.93755127,164.69086,-102.22814,-117.95968
3.941457571,164.69048,-102.85135,-119.10614
3.945363872,164.63083,-104.25747,-119.58966
3.949270173,164.42207,-103.86788,-116.22768
3.953176474,164.62852,-104.86296,-119.05307
3.957082775,164.43686,-102.27692,-116.85574
3.960989075,164.81761,-104.6599,-119.32144
3.964895376,164.55928,-100.60139,-113.90873
3.968801677,164.58456,-102.89627,-115.69693
3.972707978,164.41536,-102.22733,-113.90533
3.976614279,164.41039,-101.77975,-116.10162
3.98052058,164.3732,-105.54075,-115.58329
3.984426881,164.39273,-105.10616,-114.76449
3.988333181,164.65231,-105.4883,-115.7391
3.992239482,164.03973,-103.46317,-115.25566
3.996145783,163.89426,-104.28504,-114.59464
4.000052084,164.56412,-102.73795,-114.20412
4.003958385,164.38007,-101.90909,-113.73746
4.007864686,164.26096,-103.75307,-114.8614
4.011770987,164.21678,-102.90015,-113.90572
4.015677287,164.25215,-99.394562,-115.4677
4.019583588,164.11397,-102.76524,-113.51425
4.023489889,164.24722,-102.36491,-115.72397
4.02739619,164.05373,-102.17864,-115.77547
4.031302491,164.21257,-104.05232,-114.76852
4.035208792,163.96466,-103.22948,-115.86977
4.039115093,164.15901,-104.43378,-115.36322
4.043021394,164.00053,-103.8427,-116.7884
4.046927694,163.91505,-102.96234,-117.24043
4.050833995,163.78661,-105.36786,-117.24387
4.054740296,163.91351,-104.88048,-117.76605
4.058646597,163.70613,-101.5554,-117.29977
4.062552898,163.55177,-102.47236,-117.60973
4.066459199,163.59218,-104.39559,-118.76573
4.0703655,163.81216,-102.72716,-118.87697
4.0742718,163.45689,-100.5051,-118.71762
4.078178101,163.5744,-104.67469,-119.35168
4.082084402,163.52521,-101.80355,-122.13108
4.085990703,163.44832,-103.54679,-121.50438
4.089897004,163.50281,-104.79687,-121.26984
4.093803305,163.33635,-102.27883,-122.01884
4.097709606,163.57603,-101.07066,-121.7917
4.101615906,163.41054,-99.935234,-121.62277
4.105522207,163.42038,-103.82023,-121.2447
4.109428508,163.33134,-103.68481,-123.30573
4.113334809,163.63516,-101.9555,-123.61204
4.11724111,163.65334,-103.89713,-123.56992
4.121147411,163.66014,-103.20291,-123.11272
4.125053712,163.47925,-105.49588,-123.60324
4.128960013,163.64157,-102.79531,-122.21377
4.132866313,163.73129,-102.36338,-122.59865
4.136772614,163.97231,-104.13053,-124.95548
4.140678915,163.63481,-103.92164,-123.869
4.144585216,163.83191,-102.91624,-123.33791
4.148491517,163.73512,-104.52398,-123.32956
4.152397818,163.82776,-102.21551,-122.96825
4.156304119,163.9445,-101.6909,-120.1216
4.160210419,164.02618,-105.06479,-121.48374
4.16411672,163.92456,-102.89421,-124.13868
4.168023021,164.03456,-103.73648,-121.3089
4.171929322,164.05553,-103.46537,-122.73579
4.175835623,163.8399,-104.60701,-123.61259
4.179741924,164.11589,-100.18867,-123.78897
4.183648225,164.24899,-101.5083,-124.05994
4.187554525,164.2518,-103.58252,-124.62396
4.191460826,164.16013,-101.3904,-126.45638
4.195367127,164.00024,-99.57724,-124.75272
4.199273428,163.74965,-101.02865,-125.05978
4.203179729,164.27774,-102.62493,-125.0132
4.20708603,164.15956,-101.23447,-123.70485
4.210992331,164.07707,-101.40483,-126.08282
4.214898631,164.25389,-101.97163,-127.55493
4.218804932,164.18086,-101.68495,-126.22787
4.222711233,164.45908,-102.47891,-128.07806
4.226617534,163.84164,-101.82021,-124.32805
4.230523835,164.13818,-100.71397,-125.31696
4.234430136,164.31473,-102.67937,-124.57652
4.238336437,163.78084,-105.32316,-127.50305
4.242242738,164.20706,-101.25292,-126.63116
4.246149038,164.04807,-102.88193,-125.55514
4.250055339,164.00652,-100.71702,-126.9112
4.25396164,163.79443,-104.20334,-126.28057
4.257867941,164.25294,-101.65733,-126.63222
4.261774242,164.22142,-101.79958,-125.76459
4.265680543,163.89378,-105.14452,-126.99225
4.269586844,164.2242,-102.33045,-126.39221
4.273493144,164.12196,-102.48205,-128.60037
4.277399445,164.01242,-101.71673,-128.17744
4.281305746,163.98813,-101.36639,-127.19205
4.285212047,164.20364,-103.15036,-128.35466
4.289118348,163.78656,-102.71596,-128.54117
4.293024649,163.92006,-103.24647,-128.93396
4.29693095,163.82549,-101.83407,-127.88432
4.30083725,164.04018,-105.37949,-127.96333
4.304743551,164.13196,-101.68429,-129.35156
4.308649852,163.65672,-103.13264,-128.60649
4.312556153,163.78807,-100.47433,-129.39146
4.316462454,163.67827,-101.75661,-126.49091
4.320368755,163.87599,-100.49385,-128.55222
4.324275056,163.85872,-102.63799,-128.35719
4.328181357,163.68695,-104.07825,-130.55672
4.332087657,163.9577,-102.3493,-130.14386
4.335993958,163.76439,-103.54517,-129.26495
4.339900259,163.74513,-104.5004,-129.34387
4.34380656,163.62952,-101.73957,-129.33507
4.347712861,163.58115,-104.27859,-126.40845
4.351619162,163.83626,-103.62988,-129.08687
4.355525463,163.86815,-101.22481,-130.26508
4.359431763,163.70079,-101.94856,-127.42906
4.363338064,163.96628,-106.1991,-128.36549
4.367244365,163.40501,-103.74424,-128.69643
4.371150666,163.7411,-101.88307,-130.35275
4.375056967,163.75359,-99.767586,-128.10789
4.378963268,163.68254,-103.64017,-128.53786
4.382869569,163.8679,-104.17792,-126.27669
4.386775869,163.71161,-101.69512,-129.43823
4.39068217,163.94319,-103.65818,-131.42159
4.394588471,163.89119,-99.338272,-129.4606
4.398494772,163.81662,-102.50454,-129.51952
4.402401073,163.49046,-101.11193,-128.61478
4.406307374,163.61589,-101.69226,-129.77069
4.410213675,163.8665,-103.06256,-129.16237
4.414119976,163.87233,-101.24676,-128.99232
4.418026276,163.81238,-102.24054,-129.71906
4.421932577,163.93039,-99.069809,-128.03052
4.425838878,163.53391,-101.17601,-130.74496
4.429745179,164.13582,-104.78247,-128.0271
4.43365148,163.78732,-100.25851,-127.28649
4.437557781,163.54964,-103.41464,-127.86324
4.441464082,163.77399,-100.45479,-129.21764
4.445370382,163.68372,-103.8321,-128.1512
4.449276683,163.67203,-99.486946,-127.5639
4.453182984,163.77771,-104.31012,-130.18277
4.457089285,163.61386,-104.19499,-126.98325
4.460995586,164.08406,-97.852539,-129.13507
4.464901887,163.74449,-100.47803,-127.23169
4.468808188,163.73824,-103.09814,-126.11549
4.472714488,163.85962,-100.16859,-127.61949
4.476620789,163.44579,-104.45026,-126.90512
4.48052709,163.91586,-102.02426,-127.85512
4.484433391,163.5811,-103.25253,-127.17301
4.488339692,163.51097,-101.92828,-129.04987
4.492245993,163.48129,-98.483765,-128.47476
4.496152294,163.40346,-100.64122,-129.11757
4.500058595,163.72504,-99.525177,-127.68565
4.503964895,163.47775,-100.19222,-128.78722
4.507871196,163.81973,-105.49755,-128.58861
4.511777497,163.5201,-101.25844,-128.81639
4.515683798,163.95668,-100.95416,-127.32147
4.519590099,163.91698,-104.7688,-127.59005
4.5234964,163.56448,-100.13126,-128.31845
4.527402701,163.72969,-101.02289,-127.9138
4.531309001,163.6785,-102.25497,-127.44498
4.535215302,163.58812,-101.77497,-130.76091
4.539121603,163.70146,-101.57518,-127.36484
4.543027904,163.65475,-99.99118,-126.80598
4.546934205,163.91032,-101.69597,-127.29664
4.550840506,163.93497,-103.23903,-128.39581
4.554746807,163.54071,-103.24169,-126.96667
4.558653107,163.9733,-103.11265,-125.1133
4.562559408,163.64143,-101.43031,-124.92588
4.566465709,163.79652,-103.03547,-126.6409
4.57037201,163.7262,-103.05344,-126.19627
4.574278311,163.73543,-101.7872,-124.96163
4.578184612,163.93475,-101.55296,-125.30196
4.582090913,163.72539,-101.7049,-125.19495
4.585997214,163.62903,-106.24566,-125.07966
4.589903514,163.69441,-102.35403,-127.16207
4.593809815,163.60632,-103.93565,-126.20644
4.597716116,163.74649,-101.12691,-122.48772
4.601622417,163.66672,-100.95687,-127.27142
4.605528718,163.46967,-102.27006,-124.78293
4.609435019,163.57066,-101.38625,-126.46198
4.61334132,163.39696,-102.99825,-125.90379
4.61724762,163.29735,-102.35908,-125.3514
4.621153921,163.34856,-105.41095,-124.38902
4.625060222,163.29616,-99.975403,-126.08675
4.628966523,163.11253,-99.129204,-126.22768
4.632872824,163.14046,-101.93383,-125.32533
4.636779125,162.99997,-105.43253,-128.58394
4.640685426,162.93317,-104.26419,-125.31149
4.644591726,163.25444,-100.53191,-125.57218
4.648498027,163.20126,-99.770401,-126.29699
4.652404328,162.88943,-100.70965,-125.68444
4.656310629,163.00682,-104.95714,-125.00533
4.66021693,162.9487,-100.50523,-125.18879
4.664123231,163.24426,-103.69671,-126.61619
4.668029532,163.17548,-103.48433,-127.774
4.671935832,163.15186,-104.55145,-126.19868
4.675842133,162.82111,-103.10197,-127.62405
4.679748434,162.83453,-97.769135,-128.61559
4.683654735,162.51978,-99.561386,-126.13052
4.687561036,162.81366,-107.65897,-127.02567
4.691467337,162.84465,-99.242355,-125.66853
4.695373638,162.87863,-101.20027,-127.96049
4.699279939,162.84241,-102.81838,-126.35381
4.703186239,163.04648,-102.03775,-127.14348
4.70709254,162.92175,-101.70347,-127.64513
4.710998841,162.87393,-99.91011,-128.57301
4.714905142,162.54742,-101.45805,-130.26553
4.718811443,162.74399,-102.0073,-126.39867
4.722717744,162.92186,-101.65372,-126.22751
4.726624045,162.98111,-103.91121,-126.59973
4.730530345,162.79422,-101.81729,-124.4845
4.734436646,162.69658,-103.43394,-128.58289
4.738342947,162.70172,-106.95299,-126.17665
4.742249248,162.53889,-104.02314,-127.01679
4.746155549,162.97731,-104.76099,-126.39392
4.75006185,162.41434,-101.51088,-127.68889
4.753968151,162.56015,-102.15988,-126.89038
4.757874451,162.75081,-99.780136,-127.06607
4.761780752,162.80504,-103.48643,-128.13034
4.765687053,162.57585,-101.01355,-128.43118
4.769593354,162.8849,-103.94702,-128.21631
4.773499655,162.43796,-103.12262,-127.51495
4.777405956,162.83351,-106.35817,-129.01915
4.781312257,162.68008,-104.77489,-128.62485
4.785218558,162.58121,-105.74445,-126.29727
4.789124858,162.51283,-104.74546,-127.89917
4.793031159,162.62486,-101.70985,-128.96303
4.79693746,162.63817,-101.03474,-127.2943
4.800843761,162.64467,-101.57512,-125.6609
4.804750062,162.32141,-102.52715,-130.07988
4.808656363,162.35907,-101.57281,-125.86457
4.812562664,162.28461,-104.89716,-127.17017
4.816468964,162.25372,-103.31021,-127.36698
4.820375265,162.41164,-102.38185,-127.03796
4.824281566,162.46956,-101.2672,-128.14374
4.828187867,162.45844,-104.39073,-125.98225
4.832094168,162.37093,-103.05538,-127.6126
4.836000469,162.60483,-99.615677,-127.59162
4.83990677,162.35538,-104.13096,-128.55859
4.84381307,162.33586,-101.66563,-127.94154
4.847719371,162.35013,-103.64102,-126.17988
4.851625672,162.36211,-101.87618,-124.85395
4.855531973,162.70636,-101.70345,-126.53077
4.859438274,162.42043,-100.54788,-126.91331
4.863344575,162.68671,-101.53928,-127.89294
4.867250876,162.50381,-103.68516,-127.0133
4.871157177,162.4631,-103.57139,-127.26601
4.875063477,162.25317,-103.32459,-128.47195
4.878969778,162.59315,-101.54362,-127.9151
4.882876079,162.34137,-102.38239,-130.17616
4.88678238,162.67468,-106.92778,-127.24749
4.890688681,162.09343,-99.325096,-128.73117
4.894594982,162.34233,-103.01833,-126.22564
4.898501283,162.45062,-99.967339,-128.54784
4.902407583,162.57635,-103.22543,-129.0399
4.906313884,162.74889,-99.510574,-127.35646
4.910220185,162.72173,-99.540306,-127.27541
4.914126486,162.48543,-103.00617,-128.02721
4.918032787,162.60635,-105.04659,-128.16399
4.921939088,162.41461,-99.940514,-129.24883
4.925845389,162.3336,-103.61794,-128.95393
4.929751689,162.17369,-100.51196,-127.98548
4.93365799,162.28058,-102.42931,-127.32715
4.937564291,162.29112,-103.32819,-123.49117
4.941470592,162.1254,-104.00764,-126.32738
4.945376893,162.33807,-102.44386,-128.51411
4.949283194,162.29582,-100.93651,-128.02815
4.953189495,162.30948,-102.95261,-128.34973
4.957095796,162.35164,-102.0267,-127.67448
4.961002096,162.19485,-103.37048,-127.37996
4.964908397,162.17648,-104.8429,-127.29082
4.968814698,162.18199,-104.32098,-127.08942
4.972720999,162.33423,-97.104225,-126.0731
4.9766273,162.14519,-102.63407,-126.65783
4.980533601,161.75473,-103.99611,-126.76162
4.984439902,162.09433,-99.381813,-127.47694
4.988346202,161.77309,-102.37234,-125.6577
4.992252503,162.05051,-103.35931,-127.53497
4.996158804,162.11525,-101.02461,-126.85117
5.000065105,161.90741,-102.93488,-126.79352
5.003971406,161.77359,-100.82246,-126.30116
5.007877707,161.78516,-101.02712,-126.4711
5.011784008,161.71024,-101.77217,-126.1651
5.015690308,161.86664,-103.29859,-125.83675
5.019596609,161.70625,-104.81943,-126.3601
5.02350291,161.80646,-106.00034,-126.10873
5.027409211,161.65958,-104.04926,-126.22348
5.031315512,161.49457,-100.0126,-126.70992
5.035221813,161.6118,-102.84433,-127.07071
5.039128114,161.83362,-100.94585,-126.19485
5.043034415,161.66466,-100.46851,-125.08453
5.046940715,161.53589,-103.55191,-126.13683
5.050847016,161.70914,-102.85921,-126.30014
5.054753317,161.53822,-103.3156,-127.97433
5.058659618,161.53198,-102.23574,-125.74133
5.062565919,161.64293,-100.24389,-126.9696
5.06647222,161.71082,-100.40163,-127.69907
5.070378521,161.67104,-99.1614,-125.90902
5.074284821,161.67859,-101.96764,-123.46346
5.078191122,161.84021,-100.24602,-126.70518
5.082097423,161.88603,-101.19585,-124.76287
5.086003724,161.66544,-101.22318,-125.81989
5.089910025,161.55424,-101.77799,-123.91071
5.093816326,161.68752,-102.18825,-124.33553
5.097722627,161.80598,-99.575684,-127.64934
5.101628927,161.65073,-99.751091,-127.63285
5.105535228,161.47127,-103.12098,-123.68392
5.109441529,161.84996,-100.58105,-126.8999
5.11334783,161.53258,-103.50574,-125.85778
5.117254131,161.40999,-102.50552,-126.60062
5.121160432,161.60748,-103.56429,-125.41703
5.125066733,161.91734,-103.88892,-127.53208
5.128973034,161.85744,-101.93913,-123.41837
5.132879334,161.59799,-102.0769,-124.47516
5.136785635,161.39972,-102.34689,-124.70233
5.140691936,161.75778,-98.90876,-123.38054
5.144598237,161.78838,-99.474907,-126.8653
5.148504538,161.65341,-102.54498,-125.78481
5.152410839,161.53438,-100.55907,-124.97977
5.15631714,161.5713,-103.78151,-125.09694
5.16022344,161.72926,-102.04951,-125.59594
5.164129741,161.63478,-103.17448,-125.03455
5.168036042,161.69469,-105.28157,-126.18011
5.171942343,161.62906,-102.33383,-125.71841
5.175848644,161.6277,-101.99944,-124.65427
5.179754945,161.40346,-105.40097,-123.33461
5.183661246,161.79382,-100.46687,-124.68195
5.187567546,161.67012,-103.32397,-125.0385
5.191473847,161.83377,-104.15236,-123.64447
5.195380148,161.65332,-105.44225,-127.26791
5.199286449,161.4669,-99.77359,-124.17307
5.20319275,161.63445,-100.75205,-125.51414
5.207099051,161.41429,-101.91146,-125.58636
5.211005352,161.70058,-102.86282,-124.0537
5.214911652,161.74736,-102.24949,-123.07501
5.218817953,161.62001,-98.748695,-124.88352
5.222724254,161.64949,-103.34194,-125.26392
5.226630555,161.84518,-104.3874,-124.16008
5.230536856,161.77992,-102.73699,-125.49889
5.234443157,161.83154,-104.11197,-123.95497
5.238349458,161.56712,-101.54984,-124.90616
5.242255759,161.72156,-101.40612,-123.25505
5.246162059,161.66447,-101.83389,-124.72464
5.25006836,161.73325,-101.34092,-122.95199
5.253974661,161.84793,-97.823006,-124.4866
5.257880962,161.7699,-100.9762,-125.34837
5.261787263,161.67223,-99.753319,-125.26828
5.265693564,161.76978,-101.7495,-125.34554
5.269599865,161.76335,-102.76884,-126.61824
5.273506165,161.4435,-101.85317,-124.14273
5.277412466,161.76241,-102.33553,-124.74403
5.281318767,161.8127,-104.19241,-126.46121
5.285225068,161.48239,-103.78278,-123.46063
5.289131369,161.94,-98.993469,-126.06719
5.29303767,161.90036,-105.38277,-123.17227
5.296943971,161.43178,-105.33177,-124.42079
5.300850271,161.7775,-105.242,-124.65704
5.304756572,161.83334,-102.26802,-125.29552
5.308662873,161.77846,-100.80154,-126.35912
5.312569174,161.43538,-103.16885,-126.67356
5.316475475,161.72925,-100.19481,-126.50531
5.320381776,161.58531,-98.994064,-124.88967
5.324288077,161.80679,-101.03387,-125.30011
5.328194378,161.74121,-100.02372,-125.16904
5.332100678,161.71645,-101.96232,-125.31053
5.336006979,161.82358,-104.8742,-126.16537
5.33991328,161.48367,-100.71014,-125.88267
5.343819581,161.99361,-101.78341,-126.19372
5.347725882,161.88391,-100.13541,-125.54197
5.351632183,161.89064,-99.598747,-126.08389
5.355538484,162.00291,-103.32021,-124.58788
5.359444784,161.43765,-100.58553,-126.42604
5.363351085,161.94002,-99.567253,-126.47401
5.367257386,161.78471,-101.06844,-127.80098
5.371163687,161.65253,-102.44483,-124.16583
5.375069988,161.76945,-98.934464,-125.64324
5.378976289,161.86078,-99.829758,-126.16234
5.38288259,161.30898,-101.93031,-124.65419
5.38678889,161.74666,-101.97337,-123.99097
5.390695191,161.56216,-102.47371,-128.29527
5.394601492,162.11777,-107.2535,-126.26852
5.398507793,161.97858,-100.2683,-126.97395
5.402414094,161.69283,-99.84201,-128.11072
5.406320395,161.52789,-105.00482,-126.36456
5.410226696,161.57996,-103.39286,-127.89622
5.414132997,161.8223,-104.37826,-126.8754
5.418039297,161.66061,-101.6412,-126.69467
5.421945598,161.69571,-101.95834,-128.49008
5.425851899,161.78438,-98.634392,-126.04813
5.4297582,161.75992,-101.90458,-127.27223
5.433664501,161.89781,-99.962097,-126.2251
5.437570802,161.67319,-103.23666,-127.26629
5.441477103,161.68996,-97.600464,-128.05318
5.445383403,161.69936,-100.23492,-125.40725
5.449289704,161.87704,-101.26434,-126.13447
5.453196005,161.73323,-100.79794,-127.55861
5.457102306,161.98178,-103.38006,-125.67059
5.461008607,161.68022,-102.54294,-128.74045
5.464914908,161.63818,-102.95481,-127.78024
5.468821209,161.89171,-102.4714,-127.65237
5.472727509,161.68617,-105.16055,-125.52074
5.47663381,161.6944,-102.82055,-127.62344
5.480540111,161.8999,-100.67611,-129.1216
5.484446412,161.35486,-101.84623,-125.83741
5.488352713,161.46916,-101.85059,-127.49827
5.492259014,161.79852,-102.87596,-127.93734
5.496165315,162.20601,-100.9112,-125.41047
5.500071616,161.6129,-101.92133,-128.65965
5.503977916,161.62306,-102.25365,-128.24849
5.507884217,161.61931,-105.24281,-128.24411
5.511790518,161.53964,-103.41344,-126.9687
5.515696819,161.70731,-102.18165,-128.70821
5.51960312,161.66129,-100.80461,-129.3344
5.523509421,161.9384,-102.97015,-127.26485
5.527415722,162.02499,-100.46265,-127.80419
5.531322022,161.59045,-101.18062,-128.09875
5.535228323,161.3929,-103.79926,-126.44523
5.539134624,161.70769,-101.89886,-128.20276
5.543040925,162.08559,-103.39786,-127.22639
5.546947226,161.84872,-101.66948,-127.75738
5.550853527,161.58064,-102.6953,-129.90454
5.554759828,161.43282,-100.58495,-127.91031
5.558666128,161.61499,-101.02608,-128.40498
5.562572429,161.77118,-104.91425,-126.77947
5.56647873,161.71417,-101.46755,-126.50082
5.570385031,161.76073,-100.89892,-126.80455
5.574291332,161.68285,-102.50981,-127.0582
5.578197633,161.73132,-100.09146,-126.81811
5.582103934,161.79858,-101.94026,-127.07586
5.586010235,161.5713,-100.75293,-126.00224
5.589916535,161.5285,-102.57294,-127.23665
5.593822836,161.80766,-103.55933,-128.41441
5.597729137,161.759,-102.56817,-128.24535
5.601635438,161.75369,-98.920036,-127.06892
5.605541739,161.66066,-103.08665,-127.37904
5.60944804,161.60316,-100.03683,-128.70757
5.613354341,161.63985,-102.89465,-128.09471
5.617260641,161.65883,-106.32132,-127.493
5.621166942,161.82166,-104.84308,-128.71286
5.625073243,161.74931,-102.75861,-130.10765
5.628979544,161.95285,-102.90426,-128.2429
5.632885845,161.43689,-105.4067,-126.36935
5.636792146,162.08153,-103.12951,-128.33127
5.640698447,161.66159,-102.11247,-127.87824
5.644604747,161.80148,-103.06467,-130.15475
5.648511048,161.40598,-101.77486,-128.08838
5.652417349,161.49446,-102.71405,-128.01508
5.65632365,161.76767,-100.77752,-129.85234
5.660229951,161.91544,-100.05372,-128.50082
5.664136252,161.58849,-101.94772,-129.43857
5.668042553,161.74858,-100.56076,-125.91472
5.671948854,161.83849,-97.708,-128.07465
5.675855154,161.52094,-102.44914,-129.80482
5.679761455,161.77988,-101.88273,-129.54904
5.683667756,161.4791,-98.643082,-130.04971
5.687574057,161.76129,-102.59045,-130.31711
5.691480358,161.76706,-105.00922,-130.23312
5.695386659,161.46515,-103.54002,-127.88586
5.69929296,161.65048,-99.236244,-128.72473
5.70319926,161.51604,-100.49635,-127.6805
5.707105561,161.77322,-102.9091,-129.56891
5.711011862,161.68748,-104.10167,-128.27504
5.714918163,161.74738,-99.647606,-129.46288
5.718824464,161.73926,-104.89256,-128.81216
5.722730765,161.84557,-101.1259,-130.26878
5.726637066,161.88486,-100.82701,-128.57751
5.730543366,161.61647,-101.5944,-128.37357
5.734449667,161.72751,-103.25802,-128.7778
5.738355968,161.89365,-98.694557,-129.16682
5.742262269,161.67229,-105.10189,-129.18909
5.74616857,161.56854,-102.92829,-126.98437
5.750074871,161.66324,-104.14344,-128.57942
5.753981172,161.49207,-105.80122,-127.51904
5.757887472,161.6884,-102.9824,-131.72105
5.761793773,161.7547,-99.927246,-130.1443
5.765700074,161.53558,-101.67549,-128.66853
5.769606375,161.58536,-101.83257,-127.31023
5.773512676,161.58475,-100.31937,-129.26738
5.777418977,161.77242,-103.63131,-129.48421
5.781325278,161.78494,-105.53131,-128.17731
5.785231579,161.76535,-100.71576,-129.42357
5.789137879,161.60428,-101.14954,-129.36603
5.79304418,161.62524,-100.82272,-131.67561
5.796950481,161.64053,-101.07067,-131.19646
5.800856782,161.82256,-102.57369,-129.8011
5.804763083,161.86147,-102.97869,-129.04709
5.808669384,161.86513,-104.19101,-130.02895
5.812575685,161.40933,-102.31304,-130.45187
5.816481985,161.65242,-106.30911,-130.32585
5.820388286,161.42038,-104.53225,-130.6199
5.824294587,161.76328,-107.07619,-129.39232
5.828200888,161.75322,-104.71159,-130.02466
5.832107189,161.71274,-103.56249,-129.71078
5.83601349,161.82957,-102.80845,-129.62285
5.839919791,161.70587,-101.78487,-132.0274
5.843826091,161.45857,-101.98215,-129.49794
5.847732392,161.4987,-105.25687,-129.22334
5.851638693,161.828,-101.44675,-131.84821
5.855544994,161.97478,-103.4726,-129.64583
5.859451295,161.43793,-102.17697,-129.8054
5.863357596,161.61494,-104.07749,-129.53117
5.867263897,161.41702,-105.20896,-130.51196
5.871170198,161.65237,-104.65935,-129.68785
5.875076498,161.66768,-100.88242,-128.63553
5.878982799,161.33698,-102.06075,-130.25928
5.8828891,161.72849,-102.84273,-129.36252
5.886795401,161.18163,-106.10226,-131.00827
5.890701702,161.68617,-106.08379,-130.14606
5.894608003,161.58012,-105.05905,-131.13924
5.898514304,161.42894,-101.65808,-131.30223
5.902420604,161.71936,-105.02207,-130.64865
5.906326905,161.7836,-101.99595,-128.10184
5.910233206,161.63818,-103.88673,-129.10043
5.914139507,161.64325,-104.02148,-130.03271
5.918045808,161.87816,-101.01308,-131.77637
5.921952109,161.49213,-100.83669,-131.07764
5.92585841,161.64101,-103.69929,-128.74899
5.92976471,161.38895,-101.98991,-129.42696
5.933671011,161.60141,-102.0079,-129.98511
5.937577312,161.6467,-101.8867,-129.15552
5.941483613,161.54416,-102.11613,-128.72635
5.945389914,161.40106,-104.25867,-130.38846
5.949296215,161.78708,-105.11779,-133.00652
5.953202516,161.50209,-103.63795,-129.44238
5.957108817,161.40508,-105.99654,-130.90724
5.961015117,161.66045,-102.25008,-128.68089
5.964921418,161.63297,-100.716,-129.58134
5.968827719,161.28856,-105.05423,-131.31943
5.97273402,161.72209,-105.00185,-130.8394
5.976640321,161.69121,-103.55352,-129.32034
5.980546622,161.28726,-106.10793,-130.35046
5.984452923,161.63217,-105.95681,-129.50964
5.988359223,161.55067,-105.34656,-132.00604
5.992265524,161.80637,-104.33483,-130.04054
5.996171825,161.44505,-104.72943,-131.92239
6.000078126,161.57512,-102.77023,-130.30528
6.003984427,161.59439,-103.31825,-128.72055
6.007890728,161.75842,-105.70104,-133.28624
6.011797029,161.38666,-101.61148,-131.80119
6.015703329,161.58604,-105.14025,-132.16551
6.01960963,161.7079,-106.74637,-131.4492
6.023515931,161.67703,-103.37975,-131.18991
6.027422232,161.64897,-104.04884,-134.15991
6.031328533,161.51427,-100.17659,-131.42619
6.035234834,161.44136,-105.01608,-128.63974
6.039141135,161.67604,-101.11355,-130.11696
6.043047436,161.48337,-104.79262,-131.38472
6.046953736,161.57181,-104.85699,-130.17876
6.050860037,161.46646,-106.84909,-131.16042
6.054766338,161.30254,-105.48315,-131.85976
6.058672639,161.49974,-105.30423,-130.31952
6.06257894,161.33516,-105.74028,-131.57219
6.066485241,161.8389,-103.01717,-131.29315
6.070391542,161.41364,-104.14357,-130.42043
6.074297842,162.08405,-106.64422,-132.80576
6.078204143,161.55006,-106.3473,-131.48839
6.082110444,162.05421,-103.44505,-130.54396
6.086016745,161.38356,-103.80563,-130.84846
6.089923046,161.2137,-101.4126,-131.10201
6.093829347,161.77556,-106.3166,-130.64622
6.097735648,161.57047,-107.50804,-131.71857
6.101641948,161.61665,-108.70243,-131.91042
6.105548249,161.42767,-105.84714,-132.24437
6.10945455,161.7841,-104.06206,-131.73047
6.113360851,161.46262,-106.00945,-133.13036
6.117267152,161.45259,-101.216,-130.94615
6.121173453,161.57246,-104.45683,-131.0641
6.125079754,161.47334,-108.66657,-132.57855
6.128986055,161.5451,-103.90993,-132.04213
6.132892355,161.35103,-106.12695,-129.71844
6.136798656,161.61427,-106.06237,-134.96684
6.140704957,161.36046,-107.34457,-130.61955
6.144611258,161.58727,-106.30491,-131.94527
6.148517559,161.66982,-104.57764,-134.22612
6.15242386,161.42381,-105.40779,-132.39018
6.156330161,161.44266,-102.07549,-132.00423
6.160236461,161.84145,-104.46968,-131.63081
6.164142762,161.45502,-104.28738,-133.00642
6.168049063,161.71631,-105.33937,-132.36472
6.171955364,161.64868,-104.12391,-132.3082
6.175861665,161.53546,-102.00044,-131.73341
6.179767966,161.66479,-107.21193,-133.46378
6.183674267,161.49332,-106.43813,-133.08464
6.187580567,161.5808,-106.30346,-130.03868
6.191486868,161.45932,-106.34904,-133.18008
6.195393169,161.39639,-107.89935,-131.49583
6.19929947,161.23293,-103.77868,-130.61536
6.203205771,161.69725,-107.5771,-133.70076
6.207112072,161.60175,-102.98215,-131.72716
6.211018373,161.67711,-104.81204,-130.78986
6.214924673,161.70654,-105.24191,-132.90424
6.218830974,161.67505,-105.4545,-131.27631
6.222737275,161.3604,-104.26656,-132.68858
6.226643576,161.56464,-102.84966,-132.26564
6.230549877,161.44623,-101.51801,-132.08638
6.234456178,161.33907,-102.70619,-130.89914
6.238362479,161.53217,-103.12003,-133.22255
6.24226878,161.493,-103.94814,-132.30043
6.24617508,161.3812,-102.2656,-131.19791
6.250081381,161.57385,-104.72886,-132.66423
6.253987682,161.44475,-104.18916,-131.3284
6.257893983,161.43858,-104.08212,-132.01224
6.261800284,161.47348,-103.85345,-131.24371
6.265706585,161.03062,-103.07594,-132.25505
6.269612886,161.52448,-104.17986,-130.77219
6.273519186,161.43976,-104.54151,-132.02745
6.277425487,161.71928,-105.6149,-132.17613
6.281331788,161.60701,-103.20912,-131.07298
6.285238089,161.55684,-103.58732,-133.49112
6.28914439,161.20212,-105.47664,-132.24574
6.293050691,161.24924,-104.44277,-129.99757
6.296956992,161.5013,-106.44577,-131.73125
6.300863292,161.44821,-105.18863,-130.46707
6.304769593,161.54051,-106.20867,-131.7243
6.308675894,161.47751,-102.44857,-130.88179
6.312582195,161.33101,-103.61707,-133.04414
6.316488496,161.47018,-103.1199,-132.37648
6.320394797,161.44028,-103.11575,-130.49718
6.324301098,161.23277,-105.42867,-134.02505
6.328207399,161.38438,-106.14329,-132.97215
6.332113699,161.48836,-100.91981,-131.85243
6.33602,161.33676,-102.92895,-132.38857
6.339926301,161.3918,-101.2281,-130.43265
6.343832602,161.66417,-103.0783,-131.47662
6.347738903,161.22108,-105.34114,-128.95293
6.351645204,161.41768,-103.70933,-132.57376
6.355551505,161.46819,-100.40157,-130.58885
6.359457805,161.33253,-102.80297,-131.63834
6.363364106,161.62985,-104.21852,-132.35028
6.367270407,161.53966,-102.3197,-129.9064
6.371176708,161.52893,-104.77744,-133.88023
6.375083009,161.38078,-104.59487,-131.24181
6.37898931,161.57541,-107.30255,-132.31712
6.382895611,161.60167,-105.50099,-134.19026
6.386801911,161.67305,-101.46143,-133.43074
6.390708212,161.3138,-102.71241,-131.12662
6.394614513,161.66162,-102.4347,-130.89534
6.398520814,161.64571,-104.50281,-132.98175
6.402427115,161.54733,-102.76411,-132.06596
6.406333416,161.56377,-101.51685,-130.65651
6.410239717,161.32338,-99.380089,-131.92776
6.414146018,161.30038,-103.54893,-132.89067
6.418052318,161.48737,-103.5967,-130.77257
6.421958619,161.30402,-104.62845,-130.86818
6.42586492,161.60225,-101.96918,-130.43803
6.429771221,161.55234,-101.64558,-134.75609
6.433677522,161.4613,-104.6583,-133.82855
6.437583823,161.63812,-104.5654,-131.78873
6.441490124,161.25935,-101.12573,-132.3893
6.445396424,161.58916,-101.44167,-132.73866
6.449302725,161.45935,-102.32204,-132.46033
6.453209026,161.31528,-103.73875,-131.46861
6.457115327,161.23456,-101.68929,-132.06882
6.461021628,161.75647,-101.49852,-133.00972
6.464927929,161.41583,-102.36269,-133.72005
6.46883423,161.46608,-103.33133,-134.15698
6.47274053,161.51131,-104.28072,-133.18085
6.476646831,161.38843,-102.10766,-132.19324
6.480553132,161.4153,-98.876152,-133.08423
6.484459433,161.755,-101.23792,-131.96886
6.488365734,161.81894,-101.97121,-132.75816
6.492272035,161.51883,-102.49689,-130.63925
6.496178336,161.28806,-102.52409,-132.28894
6.500084637,161.48004,-100.16969,-130.96443
6.503990937,161.46954,-102.30507,-133.82356
6.507897238,161.51973,-101.29192,-131.60524
6.511803539,161.2952,-101.8839,-131.68356
6.51570984,161.69601,-101.70307,-134.42885
6.519616141,161.62004,-102.39878,-133.33041
6.523522442,161.31276,-103.93952,-133.36028
6.527428743,161.46002,-102.42083,-132.99226
6.531335043,161.75302,-101.59261,-131.50511
6.535241344,161.19386,-103.23407,-134.09189
6.539147645,161.33022,-100.39283,-131.24017
6.543053946,161.27975,-104.17657,-135.36006
6.546960247,161.55638,-101.44676,-131.97981
6.550866548,161.38785,-100.55521,-131.10193
6.554772849,161.31149,-103.91752,-134.3775
6.558679149,161.52136,-102.70135,-133.88863
6.56258545,161.54662,-103.83143,-134.65262
6.566491751,161.92653,-99.492821,-133.05347
6.570398052,161.64803,-98.726021,-133.64909
6.574304353,161.20691,-103.80331,-131.46402
6.578210654,161.40572,-102.41142,-135.09444
6.582116955,161.57663,-99.903992,-131.39088
6.586023256,161.63597,-103.27414,-132.76508
6.589929556,161.46507,-103.16378,-134.97678
6.593835857,161.39958,-103.21402,-133.04535
6.597742158,161.29778,-105.90498,-134.00343
6.601648459,161.34409,-99.150131,-133.21536
6.60555476,161.44701,-103.71857,-133.03929
6.609461061,161.69598,-101.65548,-132.69017
6.613367362,161.82405,-101.05638,-133.83348
6.617273662,161.79182,-100.31532,-133.3423
6.621179963,161.68346,-101.26764,-131.20735
6.625086264,161.29758,-100.76117,-133.42494
6.628992565,161.56166,-101.5976,-129.91081
6.632898866,161.6498,-102.43707,-132.56551
6.636805167,161.46516,-101.95342,-134.45203
6.640711468,161.43002,-102.21285,-133.43794
6.644617768,161.81927,-103.38223,-132.71278
6.648524069,161.62793,-100.87527,-132.67119
6.65243037,161.48798,-102.64717,-133.25403
6.656336671,161.40103,-102.92516,-133.96602
6.660242972,161.39453,-98.842361,-131.74083
6.664149273,161.59137,-102.48165,-135.54814
6.668055574,161.47311,-100.74072,-131.54031
6.671961875,161.75557,-99.416847,-132.7529
6.675868175,161.5509,-103.29362,-135.07906
6.679774476,161.60974,-99.89756,-132.54266
6.683680777,161.69701,-101.18821,-131.75783
6.687587078,161.59473,-102.973,-132.38376
6.691493379,161.4063,-100.91843,-132.76335
6.69539968,161.68826,-102.02665,-134.55959
6.699305981,161.41212,-104.1349,-132.15718
6.703212281,161.67567,-105.43289,-133.52051
6.707118582,162.04585,-104.32142,-133.68954
6.711024883,161.64806,-104.18803,-134.17175
6.714931184,161.96342,-102.31106,-132.70673
6.718837485,161.62756,-101.60318,-131.93045
6.722743786,161.50737,-106.79909,-133.66183
6.726650087,161.65396,-103.77341,-134.4312
6.730556387,161.43892,-99.564987,-132.18999
6.734462688,161.44296,-101.93359,-133.08847
6.738368989,161.61713,-103.25154,-132.00766
6.74227529,161.50494,-105.28184,-132.29895
6.746181591,161.92847,-103.77802,-133.12856
6.750087892,161.74829,-106.00433,-135.00168
6.753994193,161.84047,-104.24007,-132.68646
6.757900493,161.74088,-102.73477,-132.24927
6.761806794,161.93695,-104.10799,-130.31705
6.765713095,161.5779,-105.05118,-130.30316
6.769619396,161.45924,-102.61646,-133.23439
6.773525697,161.65605,-102.818,-133.64645
6.777431998,161.69116,-102.58038,-132.88026
6.781338299,161.93929,-103.19078,-133.16359
6.7852446,161.8517,-104.19524,-132.97856
6.7891509,161.73465,-102.62212,-134.13849
6.793057201,161.81108,-103.64927,-132.27861
6.796963502,161.64198,-100.92938,-133.75575
6.800869803,161.47552,-101.64166,-130.95474
6.804776104,161.75302,-101.50631,-132.40102
6.808682405,161.76509,-105.74825,-132.85262
6.812588706,161.80667,-101.10479,-133.44611
6.816495006,161.73865,-100.8311,-129.97008
6.820401307,161.85963,-106.30944,-132.92413
6.824307608,161.66838,-102.7453,-131.03471
6.828213909,161.5107,-103.31866,-132.23006
6.83212021,161.49617,-104.33099,-133.83566
6.836026511,161.65268,-102.16554,-133.41963
6.839932812,161.72395,-100.64437,-134.37456
6.843839112,161.8132,-102.09418,-131.62476
6.847745413,161.81088,-101.09383,-132.1459
6.851651714,161.62436,-101.62392,-132.83783
6.855558015,162.15733,-103.28374,-134.26955
6.859464316,161.8253,-102.80107,-134.11008
6.863370617,162.06429,-103.76437,-133.61244
6.867276918,161.83972,-100.73109,-133.36929
6.871183219,161.88878,-102.86189,-133.8503
6.875089519,162.14305,-100.88512,-131.50282
6.87899582,161.75665,-103.08313,-133.82213
6.882902121,161.70245,-103.94509,-131.96265
6.886808422,161.54486,-102.9836,-133.18149
6.890714723,161.78326,-103.52111,-133.54564
6.894621024,161.92511,-100.59775,-132.77243
6.898527325,161.63576,-104.21836,-133.6035
6.902433625,161.54604,-99.173141,-132.95636
6.906339926,161.62788,-104.32688,-132.60463
6.910246227,161.84889,-104.05627,-134.28235
6.914152528,161.80728,-102.81657,-131.78064
6.918058829,161.81859,-100.80372,-136.18561
6.92196513,161.63818,-102.29007,-132.2637
6.925871431,161.85161,-103.28285,-133.38251
6.929777731,161.8073,-106.84032,-133.99693
6.933684032,161.87424,-101.80488,-134.38322
6.937590333,162.06487,-102.14028,-133.38768
6.941496634,161.96475,-101.2291,-134.84599
6.945402935,161.72169,-105.17286,-134.02412
6.949309236,161.81097,-102.46592,-133.33208
6.953215537,161.77736,-98.054573,-134.29425
6.957121838,161.64819,-102.22019,-133.85208
6.961028138,161.44351,-101.94606,-134.6368
6.964934439,162.18132,-100.59719,-133.12029
6.96884074,161.63194,-99.272575,-133.36102
6.972747041,161.90396,-103.16552,-135.43388
6.976653342,162.27161,-104.90786,-133.27769
6.980559643,161.7395,-102.79086,-134.21207
6.984465944,161.9445,-102.57996,-134.18289
6.988372244,161.70639,-102.89653,-133.23926
6.992278545,161.6338,-102.36983,-133.66924
6.996184846,161.90727,-100.66743,-132.92065
7.000091147,161.7914,-103.04642,-134.93314
7.003997448,161.98927,-101.40406,-134.39461
7.007903749,161.70355,-100.52536,-133.50279
7.01181005,161.78416,-101.23283,-132.74342
7.01571635,161.77576,-103.00058,-133.92755
7.019622651,161.9619,-102.93098,-132.4543
7.023528952,162.09271,-103.45161,-132.28444
7.027435253,161.84653,-102.3074,-133.89059
7.031341554,161.61021,-107.24975,-135.64056
7.035247855,161.53609,-98.998161,-133.90244
7.039154156,161.85965,-102.69614,-134.06969
7.043060457,162.04205,-100.25347,-134.42407
7.046966757,161.70581,-102.54762,-136.00552
7.050873058,162.21666,-103.70127,-133.06821
7.054779359,162.11108,-103.64933,-132.83215
7.05868566,162.03484,-103.80637,-134.58604
7.062591961,161.73853,-104.09799,-134.25218
7.066498262,161.60049,-103.90405,-133.11322
7.070404563,161.70236,-102.84947,-134.35677
7.074310863,161.72507,-99.989868,-132.45509
7.078217164,161.87468,-101.56927,-132.16795
7.082123465,161.89476,-106.38206,-132.12886
7.086029766,161.88069,-103.04017,-132.01068
7.089936067,161.5146,-102.68871,-134.09219
7.093842368,161.69508,-102.67378,-135.71567
7.097748669,162.15266,-102.78044,-133.18498
7.101654969,162.01251,-105.53193,-131.99321
7.10556127,161.78253,-103.41398,-132.82849
7.109467571,161.89134,-101.8544,-132.54633
7.113373872,161.99466,-103.17572,-134.05206
7.117280173,161.93954,-104.12653,-133.19376
7.121186474,161.89502,-102.10225,-135.90237
7.125092775,162.04568,-103.16199,-133.86519
7.128999076,161.93378,-101.94106,-134.57248
7.132905376,161.82433,-101.00452,-135.66623
7.136811677,162.03694,-98.652901,-134.32524
7.140717978,161.80344,-103.84296,-134.34195
7.144624279,161.80734,-105.1825,-135.31401
7.14853058,161.61967,-102.67217,-133.81439
7.152436881,161.79454,-102.14936,-133.83029
7.156343182,161.84138,-103.53116,-135.35905
7.160249482,161.86479,-104.75687,-133.80734
7.164155783,161.92207,-103.12923,-135.04733
7.168062084,161.82817,-104.38124,-133.57346
7.171968385,161.96478,-101.33297,-135.03384
7.175874686,161.78345,-103.17207,-133.34026
7.179780987,161.58969,-102.27293,-135.51616
7.183687288,161.83354,-104.55739,-134.64384
7.187593588,161.88618,-104.55354,-131.37848
7.191499889,162.14116,-103.89636,-135.99149
7.19540619,161.90512,-103.18615,-134.0174
7.199312491,161.97134,-104.37173,-134.1534
7.203218792,161.86412,-105.05943,-134.47467
7.207125093,162.23975,-103.16055,-131.88689
7.211031394,161.85704,-104.08839,-133.94812
7.214937695,161.88609,-103.308,-133.0179
7.218843995,162.36934,-102.36136,-133.10663
7.222750296,161.7572,-100.61178,-135.08118
7.226656597,162.03174,-102.74503,-133.54903
7.230562898,161.90558,-107.15309,-134.22305
7.234469199,161.82077,-102.6496,-134.07791
7.2383755,161.90628,-103.88531,-134.18477
7.242281801,162.17914,-106.11539,-132.3701
7.246188101,161.8956,-102.26112,-135.31505
7.250094402,161.8177,-103.71348,-134.70613
7.254000703,162.06725,-104.2965,-136.47136
7.257907004,161.93587,-101.61329,-133.35576
7.261813305,162.09866,-103.02631,-132.13795
7.265719606,162.16078,-103.22393,-133.89203
7.269625907,162.3273,-102.75695,-133.30595
7.273532207,161.97083,-103.22285,-134.87567
7.277438508,161.84787,-99.602989,-134.98364
7.281344809,162.23059,-108.58881,-133.45569
7.28525111,162.30576,-100.39368,-134.7883
7.289157411,162.24002,-104.81275,-135.44487
7.293063712,162.06572,-102.64839,-133.53891
7.296970013,162.03334,-104.33396,-134.80222
7.300876313,162.19963,-102.79579,-134.44072
7.304782614,162.0475,-101.87874,-133.97864
7.308688915,161.85988,-102.18798,-134.16252
7.312595216,162.138,-100.63398,-131.13657
7.316501517,162.03279,-104.49023,-132.30762
7.320407818,162.26772,-101.66998,-132.81039
7.324314119,162.21758,-105.19733,-133.95647
7.32822042,162.07564,-102.08045,-134.12363
7.33212672,162.17088,-103.84577,-133.57593
7.336033021,162.14328,-103.11332,-135.35492
7.339939322,162.1192,-100.56712,-133.98152
7.343845623,161.8777,-105.68608,-136.17972
7.347751924,162.3271,-106.00108,-132.75171
7.351658225,162.17026,-103.15012,-133.94753
7.355564526,162.35832,-103.56378,-133.78493
7.359470826,162.01698,-105.29635,-134.91222
7.363377127,161.68515,-103.59164,-135.12906
7.367283428,161.85585,-100.13137,-134.95966
7.371189729,162.25636,-103.30965,-135.13533
7.37509603,162.01456,-106.91963,-134.98711
7.379002331,162.08922,-102.27747,-131.77536
7.382908632,161.98802,-102.22816,-133.30368
7.386814932,162.20821,-103.10345,-134.02319
7.390721233,162.12668,-102.79381,-136.59807
7.394627534,162.24927,-103.48669,-132.90849
7.398533835,162.27922,-104.26485,-132.86217
7.402440136,162.10823,-102.08052,-133.80205
7.406346437,161.8844,-103.09592,-134.65105
7.410252738,162.22411,-105.931,-135.00935
7.414159039,162.20224,-103.87527,-133.75226
7.418065339,162.35852,-104.94209,-135.08305
7.42197164,161.8761,-100.2299,-134.31905
7.425877941,161.97644,-103.91693,-134.37898
7.429784242,162.23787,-106.07913,-131.17361
7.433690543,162.34137,-105.00151,-135.33687
7.437596844,162.16515,-104.2967,-136.18155
7.441503145,162.11006,-104.52707,-134.86334
7.445409445,162.11325,-104.4362,-133.71283
7.449315746,161.99287,-103.80084,-134.21342
7.453222047,161.83415,-102.05733,-133.98795
7.457128348,162.07074,-108.32912,-133.2132
7.461034649,162.14644,-102.3145,-130.66402
7.46494095,162.17319,-104.41537,-134.34416
7.468847251,162.08426,-101.16613,-133.45757
7.472753551,162.03801,-107.4585,-136.89119
7.476659852,161.92532,-101.20912,-135.21147
7.480566153,161.79099,-104.91036,-132.14819
7.484472454,162.28604,-105.27712,-134.73221
7.488378755,162.06445,-103.74762,-134.97531
7.492285056,162.09195,-102.93665,-135.16666
7.496191357,161.77615,-100.6519,-133.15327
7.500097658,162.0737,-103.34428,-132.36896
7.504003958,161.9873,-100.16652,-131.77043
7.507910259,162.25201,-103.4229,-133.99564
7.51181656,161.87369,-103.65796,-133.54713
7.515722861,161.74619,-103.09956,-133.59244
7.519629162,162.03412,-102.62923,-134.33566
7.523535463,162.27971,-101.76316,-132.83421
7.527441764,162.2433,-104.32269,-132.729
7.531348064,161.86481,-104.0845,-132.63298
7.535254365,162.02419,-104.17522,-134.39767
7.539160666,162.09319,-104.79148,-133.61203
7.543066967,161.76324,-100.15387,-130.8044
7.546973268,162.28461,-104.00278,-133.31863
7.550879569,162.04164,-105.93285,-131.03117
7.55478587,161.96181,-104.76622,-133.75098
7.55869217,161.92302,-103.06774,-132.49986
7.562598471,161.88545,-103.18808,-131.58362
7.566504772,162.0537,-105.08787,-133.49536
7.570411073,161.81287,-107.63876,-134.2897
7.574317374,162.07251,-100.62383,-133.70584
7.578223675,162.49696,-106.30879,-131.67789
7.582129976,161.92416,-104.72519,-132.67148
7.586036277,162.0377,-100.97805,-132.09337
7.589942577,162.05829,-105.18261,-133.41855
7.593848878,162.00438,-103.70145,-132.07672
7.597755179,162.15277,-102.80182,-132.85266
7.60166148,161.81044,-101.12547,-131.66489
7.605567781,162.27136,-101.90144,-134.05603
7.609474082,161.89943,-107.26363,-131.65819
7.613380383,162.02318,-102.97036,-131.46123
7.617286683,162.33078,-106.39011,-132.79675
7.621192984,161.7359,-102.49316,-134.00664
7.625099285,161.70009,-104.25067,-131.90341
7.629005586,161.82126,-102.73211,-133.11781
7.632911887,161.87865,-100.97836,-133.53159
7.636818188,162.16052,-104.63808,-132.56853
7.640724489,162.13416,-105.66699,-130.99464
7.644630789,162.15919,-103.12799,-134.03931
7.64853709,162.3158,-105.92703,-131.55414
7.652443391,161.79233,-104.72573,-130.28464
7.656349692,161.95064,-106.55895,-134.66423
7.660255993,162.37012,-105.39499,-133.02859
7.664162294,161.82765,-103.81197,-132.24049
7.668068595,161.96954,-107.28123,-132.67314
7.671974896,161.76561,-106.69422,-132.73056
7.675881196,161.54399,-104.47364,-132.088
7.679787497,161.97359,-105.20039,-131.03285
7.683693798,162.0336,-100.50175,-133.39156
7.687600099,161.81378,-104.55525,-131.41548
7.6915064,161.76505,-104.34926,-135.15594
7.695412701,161.79103,-107.03909,-133.23749
7.699319002,162.07974,-107.51841,-131.60725
7.703225302,161.88048,-101.09904,-133.21783
7.707131603,162.05243,-105.10456,-132.38051
7.711037904,161.95483,-102.63366,-133.51346
7.714944205,161.88243,-105.85297,-130.6057
7.718850506,161.7103,-103.13042,-130.66457
7.722756807,161.76602,-104.19629,-133.42899
7.726663108,161.84253,-106.22115,-131.02367
7.730569408,162.05867,-105.41757,-132.61435
7.734475709,162.00847,-106.36272,-132.08357
7.73838201,161.81107,-105.71121,-133.16318
7.742288311,162.03607,-106.36899,-131.82341
7.746194612,162.19656,-104.15466,-130.27875
7.750100913,162.18155,-105.69608,-132.12936
7.754007214,161.96263,-102.25777,-133.01746
7.757913514,162.10753,-105.4156,-132.27483
7.761819815,161.94777,-104.46916,-129.13869
7.765726116,162.19348,-105.71563,-132.82736
7.769632417,161.81358,-105.44909,-132.97313
7.773538718,162.02332,-106.43483,-129.97394
7.777445019,162.03369,-105.6562,-130.18231
7.78135132,161.85719,-104.8041,-133.3959
7.785257621,161.87085,-105.66615,-132.46997
7.789163921,162.02203,-103.53592,-131.80057
7.793070222,161.74341,-104.44276,-132.6067
7.796976523,162.00046,-107.83607,-131.70522
7.800882824,161.92207,-106.36218,-132.34071
7.804789125,161.44341,-106.2627,-131.46233
7.808695426,161.87627,-105.68343,-131.05527
7.812601727,162.04601,-103.22943,-132.1403
7.816508027,162.18985,-105.81549,-133.3615
7.820414328,161.68066,-105.61581,-131.16409
7.824320629,162.02953,-106.35094,-132.10689
7.82822693,162.07152,-108.43853,-132.93167
7.832133231,161.88097,-107.10425,-132.22723
7.836039532,162.20169,-109.56734,-131.31102
7.839945833,161.93311,-108.15035,-130.13431
7.843852133,162.0439,-105.43682,-131.74533
7.847758434,162.01884,-107.77773,-131.41829
7.851664735,162.15889,-105.64253,-130.89467
7.855571036,161.73541,-105.45438,-130.41255
7.859477337,161.81502,-107.44807,-128.12782
7.863383638,161.92732,-106.93842,-130.89589
7.867289939,162.17189,-108.49606,-131.62468
7.87119624,161.85457,-108.83718,-130.47296
7.87510254,162.05731,-106.81178,-129.56401
7.879008841,161.81709,-110.88647,-129.75957
7.882915142,161.90117,-103.98229,-129.57195
7.886821443,162.0672,-107.67545,-128.72365
7.890727744,161.83635,-108.85822,-130.98013
7.894634045,162.21014,-103.68366,-130.10828
7.898540346,161.88489,-104.39526,-128.0921
7.902446646,161.69565,-107.37144,-128.13048
7.906352947,161.64954,-109.44682,-132.02768
7.910259248,162.1187,-106.72388,-129.44456
7.914165549,161.90536,-109.85062,-130.49353
7.91807185,161.70631,-106.10432,-129.64485
7.921978151,161.91292,-108.996,-130.88141
7.925884452,161.93747,-109.27158,-130.5477
7.929790752,162.10893,-106.54722,-129.31042
7.933697053,161.89529,-108.54906,-130.10316
7.937603354,161.87872,-106.26232,-128.95546
7.941509655,161.75252,-109.56898,-130.36578
7.945415956,162.06873,-106.60944,-129.96045
7.949322257,161.67015,-111.74245,-131.38698
7.953228558,161.74217,-105.74825,-130.00029
7.957134859,161.97571,-110.117,-128.89659
7.961041159,162.12593,-109.16361,-129.10474
7.96494746,161.92714,-106.12051,-130.63255
7.968853761,161.64406,-110.83141,-128.47746
7.972760062,161.9808,-112.89776,-129.14175
7.976666363,161.73878,-107.78954,-129.9794
7.980572664,161.69395,-109.0085,-131.08771
7.984478965,161.7494,-107.49236,-130.0265
7.988385265,161.8465,-110.95969,-132.06688
7.992291566,162.05058,-107.68416,-131.22324
7.996197867,161.99432,-108.93836,-131.59087
8.000104168,161.80612,-108.11819,-130.74872
8.004010469,161.91017,-107.99924,-129.64856
8.00791677,162.0856,-108.22419,-130.86928
8.011823071,161.96744,-107.45218,-130.28156
8.015729371,161.99391,-108.43803,-129.95108
8.019635672,162.17336,-109.22403,-130.14745
8.023541973,161.96182,-107.82807,-130.53363
8.027448274,161.8002,-108.08078,-129.3631
8.031354575,161.72241,-108.30495,-127.96611
8.035260876,162.06041,-108.75089,-130.41216
8.039167177,162.00334,-111.01667,-128.73801
8.043073478,161.93602,-107.73594,-128.45811
8.046979778,161.89227,-111.30078,-128.19455
8.050886079,161.80498,-107.64922,-130.18829
8.05479238,162.1144,-110.98437,-129.64015
8.058698681,161.86034,-107.75562,-129.09685
8.062604982,162.12039,-108.7269,-127.47966
8.066511283,161.78334,-107.46084,-129.00925
8.070417584,161.79816,-108.02796,-129.31584
8.074323884,162.01311,-104.26984,-130.53688
8.078230185,161.64055,-107.91927,-128.4604
8.082136486,161.82359,-107.40691,-129.62257
8.086042787,161.98077,-110.12518,-130.72336
8.089949088,161.85913,-108.58298,-129.82596
8.093855389,162.07674,-110.75012,-131.37273
8.09776169,161.89903,-108.95767,-126.69096
8.10166799,161.83838,-110.02576,-131.33585
8.105574291,161.71785,-111.51578,-125.71687
8.109480592,161.81436,-113.40066,-130.65239
8.113386893,161.7411,-112.45895,-130.34325
8.117293194,161.43944,-111.47902,-129.98163
8.121199495,161.92262,-109.26724,-129.42882
8.125105796,162.02605,-110.05975,-128.78865
8.129012097,161.77737,-110.24528,-129.36584
8.132918397,162.19632,-109.49283,-128.44731
8.136824698,161.89349,-111.55614,-130.25919
8.140730999,161.87576,-110.53691,-128.58252
8.1446373,161.8085,-108.20426,-128.49756
8.148543601,161.82968,-112.99088,-129.50429
8.152449902,162.2121,-110.03491,-128.18921
8.156356203,162.03256,-110.39679,-129.80464
8.160262503,161.64819,-111.91296,-131.21201
8.164168804,162.06731,-111.96018,-129.76797
8.168075105,161.75089,-113.60664,-130.42128
8.171981406,162.1861,-109.7803,-129.496
8.175887707,161.91478,-107.79929,-128.6335
8.179794008,161.99887,-109.15108,-131.11714
8.183700309,161.44983,-110.37071,-129.56361
8.187606609,162.0188,-108.44683,-130.25081
8.19151291,161.86626,-110.43655,-130.40535
8.195419211,161.90422,-112.78763,-129.61755
8.199325512,161.69891,-112.71907,-128.96597
8.203231813,162.00946,-112.32434,-128.76947
8.207138114,161.69373,-109.36465,-127.86699
8.211044415,161.6978,-112.42281,-129.58939
8.214950716,161.9969,-110.51785,-129.60728
8.218857016,161.90979,-112.08572,-130.9897
8.222763317,162.01886,-109.6181,-130.76524
8.226669618,162.05753,-112.0814,-130.1962
8.230575919,162.10236,-108.76421,-131.22279
8.23448222,161.76965,-110.88771,-129.34605
8.238388521,161.85461,-110.25356,-129.53847
8.242294822,161.86197,-111.46593,-130.05794
8.246201122,161.89755,-109.19184,-129.77605
8.250107423,161.66426,-111.50886,-129.45328
8.254013724,161.75108,-110.74939,-127.64856
8.257920025,162.07761,-106.93274,-131.54898
8.261826326,161.77434,-111.13971,-128.66443
8.265732627,161.98817,-111.11528,-129.93208
8.269638928,161.96407,-110.83642,-130.86792
8.273545228,162.06662,-109.36521,-132.37419
8.277451529,161.71999,-112.31422,-130.14745
8.28135783,162.013,-111.15072,-129.65985
8.285264131,162.28908,-108.4068,-131.16135
8.289170432,161.90332,-110.9116,-131.00877
8.293076733,162.0872,-110.73529,-130.89572
8.296983034,162.46614,-111.30888,-129.39505
8.300889334,161.87242,-109.15502,-129.92928
8.304795635,162.05069,-109.18253,-131.93892
8.308701936,162.05678,-108.22936,-132.68665
8.312608237,162.27707,-110.42731,-130.1152
8.316514538,162.17024,-110.28577,-131.99883
8.320420839,162.35324,-110.23106,-131.4471
8.32432714,162.21066,-114.5481,-131.29555
8.328233441,162.24667,-110.58653,-130.65024
8.332139741,162.01231,-110.26116,-130.73482
8.336046042,162.16634,-107.50111,-130.04329
8.339952343,162.17317,-109.47186,-130.05251
8.343858644,162.21323,-107.09294,-129.75679
8.347764945,161.93268,-105.64501,-131.08
8.351671246,162.12088,-109.51669,-131.52779
8.355577547,162.21771,-109.73595,-130.61809
8.359483847,162.18741,-107.95514,-130.4326
8.363390148,162.45413,-112.29265,-129.32576
8.367296449,162.21991,-110.5952,-130.91455
8.37120275,161.79819,-110.01772,-130.43286
8.375109051,162.12096,-109.46576,-132.44688
8.379015352,162.24834,-110.6823,-133.10648
8.382921653,162.30585,-113.07921,-130.09947
8.386827953,161.76335,-108.05985,-131.24658
8.390734254,162.07111,-110.61586,-131.40695
8.394640555,162.21327,-111.16814,-130.87466
8.398546856,161.93358,-109.46449,-130.43277
8.402453157,162.30443,-108.92834,-130.36359
8.406359458,162.30911,-109.13015,-130.1228
8.410265759,162.2014,-108.22393,-130.97984
8.41417206,161.93884,-106.81706,-132.26819
8.41807836,162.15776,-109.60674,-129.92336
8.421984661,161.95253,-111.57349,-131.42345
8.425890962,161.94183,-107.47124,-130.58887
8.429797263,162.44119,-111.14664,-131.63409
8.433703564,162.43671,-109.82108,-131.24767
8.437609865,162.04779,-108.25529,-132.99786
8.441516166,162.2953,-110.29776,-129.76303
8.445422466,161.96898,-111.7137,-130.78696
8.449328767,162.34883,-107.48573,-132.05762
8.453235068,161.80763,-106.72878,-132.07475
8.457141369,162.07089,-108.54288,-131.80176
8.46104767,162.25826,-110.46793,-131.77214
8.464953971,162.35425,-106.25871,-132.27112
8.468860272,162.13725,-106.58857,-132.30884
8.472766572,162.1765,-108.38503,-132.43752
8.476672873,162.15556,-108.33368,-129.82474
8.480579174,162.28824,-103.87902,-131.6033
8.484485475,162.37576,-104.46931,-133.01361
8.488391776,162.02269,-109.71062,-131.70566
8.492298077,162.24406,-106.06213,-132.10925
8.496204378,161.88779,-106.94749,-130.28523
8.500110679,162.11964,-106.13995,-131.84341
8.504016979,162.34473,-106.80886,-130.14049
8.50792328,162.08853,-107.18602,-130.323
8.511829581,162.14464,-107.07207,-129.12993
8.515735882,162.17192,-106.54165,-130.642
8.519642183,161.90947,-108.62714,-132.71661
8.523548484,162.23593,-107.66037,-131.89249
8.527454785,162.08038,-105.85177,-130.4704
8.531361085,162.24542,-108.1519,-130.29341
8.535267386,162.2123,-106.05356,-130.37006
8.539173687,162.22514,-106.95051,-130.32109
8.543079988,162.058,-108.22185,-131.16454
8.546986289,162.01375,-106.97483,-131.19159
8.55089259,161.97739,-107.48801,-130.75085
8.554798891,162.06322,-105.11262,-130.89226
8.558705191,162.04187,-107.86354,-129.78531
8.562611492,162.32761,-108.54393,-129.76416
8.566517793,161.83244,-108.30289,-130.79991
8.570424094,162.52809,-105.64979,-129.15388
8.574330395,162.05937,-106.46023,-129.78001
8.578236696,162.11729,-106.03389,-130.84004
8.582142997,161.93382,-106.03163,-131.05228
8.586049298,162.10608,-104.95499,-132.09412
8.589955598,162.08319,-107.15285,-130.92393
8.593861899,162.06442,-108.55146,-131.56642
8.5977682,161.98764,-105.188,-131.38589
8.601674501,162.04617,-104.13806,-130.90646
8.605580802,162.23218,-106.85407,-130.05304
8.609487103,162.02736,-104.99829,-132.02451
8.613393404,161.95447,-104.27735,-132.05864
8.617299704,162.13254,-104.68539,-130.53497
8.621206005,162.22119,-103.88856,-132.42328
8.625112306,162.04352,-107.41349,-129.82329
8.629018607,162.12181,-104.36072,-130.45412
8.632924908,162.07823,-104.64003,-130.86507
8.636831209,161.98848,-107.83872,-131.13971
8.64073751,161.78888,-104.34715,-130.98094
8.64464381,162.07889,-107.3326,-131.32239
8.648550111,162.09869,-108.19257,-131.42044
8.652456412,161.85121,-106.25131,-131.90593
8.656362713,161.90482,-106.29773,-133.62968
8.660269014,162.17137,-109.37845,-132.65912
8.664175315,162.36247,-105.50288,-131.32552
8.668081616,162.2755,-106.26153,-133.38089
8.671987917,161.92719,-104.44764,-129.44518
8.675894217,162.15521,-107.88523,-131.38268
8.679800518,162.20248,-103.48277,-131.27658
8.683706819,162.22093,-107.22859,-132.07639
8.68761312,162.12473,-109.30275,-132.14803
8.691519421,161.82407,-104.24754,-128.82948
8.695425722,162.0219,-105.22101,-131.79552
8.699332023,162.20438,-106.74647,-131.70532
8.703238323,162.45718,-105.81176,-132.75742
8.707144624,162.0983,-106.72253,-131.39427
8.711050925,162.1761,-106.17778,-130.56102
8.714957226,162.32477,-107.19975,-129.84453
8.718863527,162.02345,-105.45142,-132.1562
8.722769828,162.45532,-107.18049,-133.34189
8.726676129,162.16608,-103.98692,-131.66295
8.730582429,162.08713,-104.67153,-131.97842
8.73448873,162.21233,-106.03898,-132.573
8.738395031,162.20975,-105.73032,-132.66779
8.742301332,162.0632,-105.80714,-131.34848
8.746207633,162.25655,-108.50109,-130.90552
8.750113934,162.35637,-103.26684,-132.09258
8.754020235,162.52182,-109.89474,-131.24661
8.757926536,161.81615,-103.47388,-132.96069
8.761832836,162.20633,-106.49168,-131.65062
8.765739137,161.86771,-105.76181,-131.54521
8.769645438,162.17633,-104.46024,-131.73674
8.773551739,162.42546,-104.16486,-133.23361
8.77745804,162.01675,-106.83121,-130.69353
8.781364341,161.96985,-101.9103,-131.64598
8.785270642,161.97351,-106.64635,-131.57965
8.789176942,162.37857,-105.65428,-129.78047
8.793083243,161.88963,-105.42355,-130.61543
8.796989544,161.92192,-104.52917,-132.81006
8.800895845,161.95715,-103.83757,-132.55522
8.804802146,162.09447,-103.77899,-130.31122
8.808708447,162.12749,-106.29092,-132.02898
8.812614748,162.30484,-104.7838,-129.51558
8.816521048,162.15099,-105.19566,-132.57071
8.820427349,161.88556,-107.11966,-131.41864
8.82433365,162.32166,-103.16093,-131.75777
8.828239951,162.14989,-105.79241,-132.1068
8.832146252,162.21147,-102.71096,-131.79492
8.836052553,162.20712,-105.55302,-132.54968
8.839958854,162.14272,-106.13419,-133.39413
8.843865154,161.70404,-108.28845,-132.5363
8.847771455,162.07797,-104.66579,-130.3205
8.851677756,162.11502,-104.87322,-131.78665
8.855584057,162.3132,-104.57461,-131.29193
8.859490358,162.58487,-104.47643,-132.54778
8.863396659,161.94856,-105.69315,-131.57933
8.86730296,162.25571,-105.37814,-131.20888
8.871209261,162.11963,-106.1804,-131.72728
8.875115561,162.08586,-102.07121,-132.70967
8.879021862,162.5589,-103.22099,-132.01778
8.882928163,162.00278,-107.75706,-130.0233
8.886834464,162.02417,-105.41778,-130.50841
8.890740765,162.12346,-103.2861,-132.42618
8.894647066,161.79688,-104.89392,-132.98174
8.898553367,162.37617,-105.26467,-133.56667
8.902459667,162.02888,-106.2315,-131.97324
8.906365968,161.97702,-106.18177,-130.61194
8.910272269,162.28464,-101.92821,-131.06174
8.91417857,161.99533,-105.18712,-132.23746
8.918084871,162.16519,-104.31385,-130.34827
8.921991172,162.05237,-106.36428,-129.11452
8.925897473,161.7081,-106.53992,-133.5739
8.929803773,162.18324,-106.14927,-130.10098
8.933710074,161.81277,-106.35324,-130.30171
8.937616375,162.03931,-106.74752,-131.99408
8.941522676,162.01254,-104.52299,-133.68338
8.945428977,162.36812,-108.65957,-132.51347
8.949335278,162.16524,-103.37206,-130.91443
8.953241579,161.80005,-103.19541,-132.332
8.95714788,162.18852,-105.97935,-131.0907
8.96105418,162.10133,-105.88723,-131.22592
8.964960481,162.15033,-107.67313,-133.0864
8.968866782,162.41731,-106.76389,-131.35193
8.972773083,162.07832,-104.78913,-131.55795
8.976679384,162.02647,-108.92797,-129.79405
8.980585685,162.31898,-104.70141,-131.01089
8.984491986,162.00108,-105.30657,-130.91867
8.988398286,162.40573,-105.29234,-129.77487
8.992304587,161.99329,-109.09494,-131.54878
8.996210888,162.09407,-103.45325,-132.95659
9.000117189,161.95198,-104.69885,-133.68828
9.00402349,161.91077,-103.40152,-131.49249
9.007929791,162.00554,-103.05996,-131.67783
9.011836092,161.97815,-104.85033,-132.73038
9.015742392,162.08301,-107.72484,-129.80348
9.019648693,161.99567,-105.0935,-132.01271
9.023554994,161.89145,-107.20248,-132.00607
9.027461295,162.18173,-102.30698,-131.66655
9.031367596,162.26781,-106.55519,-130.89642
9.035273897,162.2708,-103.67733,-131.84052
9.039180198,161.95224,-102.97996,-131.77284
9.043086499,162.06784,-103.46883,-131.23964
9.046992799,162.39929,-106.41879,-129.94185
9.0508991,162.31107,-104.1865,-130.86394
9.054805401,162.30232,-106.48281,-132.42128
9.058711702,162.24994,-105.70522,-130.04053
9.062618003,161.97292,-109.6497,-131.83459
9.066524304,162.01085,-105.65884,-131.90897
9.070430605,162.05092,-103.78913,-132.84201
9.074336905,161.98087,-105.83701,-132.45045
9.078243206,162.03661,-105.92696,-132.38547
9.082149507,162.23555,-105.8699,-129.16393
9.086055808,162.17181,-106.39113,-132.13087
9.089962109,162.00116,-102.81437,-131.85306
9.09386841,161.97531,-105.24424,-133.57736
9.097774711,162.17189,-104.62772,-130.74721
9.101681011,162.24641,-103.29295,-132.05966
9.105587312,162.07791,-104.0845,-130.44118
9.109493613,162.03236,-105.62067,-129.38014
9.113399914,161.86301,-101.95084,-132.25493
9.117306215,162.16884,-104.07853,-133.47182
9.121212516,162.09688,-104.87333,-131.53665
9.125118817,161.96013,-104.38387,-133.64598
9.129025118,162.33269,-106.12122,-132.82558
9.132931418,161.78239,-104.12151,-131.84505
9.136837719,162.25818,-106.63695,-131.00803
9.14074402,161.77063,-105.60261,-131.08652
9.144650321,162.09607,-108.41756,-130.50557
9.148556622,162.18668,-101.56664,-133.96806
9.152462923,162.17229,-99.80423,-131.33871
9.156369224,162.13315,-108.01517,-131.99193
9.160275524,161.91763,-102.44921,-133.08235
9.164181825,161.85175,-106.76087,-130.88385
9.168088126,162.00098,-107.06846,-131.8318
9.171994427,161.94841,-104.78745,-132.11758
9.175900728,161.94633,-106.62857,-132.64575
9.179807029,162.09311,-101.49559,-133.86633
9.18371333,161.91586,-106.45246,-132.73274
9.18761963,162.15749,-105.50751,-132.22556
9.191525931,161.72665,-103.79829,-132.89717
9.195432232,161.81433,-103.82813,-132.17998
9.199338533,161.91776,-105.11898,-130.55423
9.203244834,161.60759,-101.98199,-130.66505
9.207151135,162.26849,-103.57369,-130.06555
9.211057436,161.79222,-104.42628,-133.15263
9.214963737,162.28067,-102.41087,-131.33958
9.218870037,162.33546,-105.71754,-135.29361
9.222776338,162.10243,-106.15606,-134.29706
9.226682639,161.97087,-101.93991,-132.63422
9.23058894,162.0015,-104.37795,-130.84746
9.234495241,162.09148,-105.70253,-132.22704
9.238401542,162.42314,-104.78479,-131.55492
9.242307843,162.16109,-104.24218,-132.94919
9.246214143,161.96658,-104.38862,-132.10913
9.250120444,161.82851,-104.1937,-133.59407
9.254026745,162.03772,-105.59224,-132.22102
9.257933046,162.20224,-103.66235,-133.30901
9.261839347,162.1353,-104.48371,-132.19063
9.265745648,162.00482,-103.8779,-132.77005
9.269651949,161.9129,-106.78804,-133.58931
9.273558249,162.02722,-103.81356,-132.31656
9.27746455,162.10909,-106.142,-133.05016
9.281370851,161.81071,-107.34153,-133.54071
9.285277152,162.32164,-105.62216,-132.38319
9.289183453,162.01071,-102.83545,-133.52754
9.293089754,161.95457,-104.22155,-131.89735
9.296996055,162.10291,-104.07514,-133.07007
9.300902355,162.22289,-104.18957,-131.62511
9.304808656,161.87424,-106.5519,-131.42007
9.308714957,162.01016,-103.09526,-130.89439
9.312621258,162.23375,-99.852936,-131.74513
9.316527559,162.15074,-101.65469,-132.9373
9.32043386,161.8877,-106.16106,-130.8412
9.324340161,161.74055,-101.94295,-133.26927
9.328246462,162.31117,-107.26034,-132.88297
9.332152762,161.67,-103.91306,-131.82608
9.336059063,162.13579,-104.44999,-132.55064
9.339965364,162.26378,-106.44768,-133.83675
9.343871665,162.30444,-103.65742,-133.6082
9.347777966,162.34926,-103.09978,-132.10898
9.351684267,161.89691,-104.42345,-132.85297
9.355590568,161.72237,-103.67381,-132.77158
9.359496868,161.85815,-104.3514,-132.5296
9.363403169,161.91638,-101.8643,-132.6366
9.36730947,162.03992,-104.48559,-131.12752
9.371215771,162.04665,-103.13107,-131.69577
9.375122072,161.92052,-104.46299,-132.97586
9.379028373,162.06247,-105.02859,-131.28831
9.382934674,161.9798,-101.14674,-134.28812
9.386840974,162.41803,-102.01917,-131.74713
9.390747275,162.1109,-102.59642,-133.73318
9.394653576,162.25955,-104.1686,-132.44626
9.398559877,162.19608,-103.28577,-132.60641
9.402466178,161.87035,-104.82767,-132.44756
9.406372479,161.97508,-107.49991,-131.9169
9.41027878,161.88181,-104.08003,-132.04732
9.414185081,162.42258,-103.0211,-132.68211
9.418091381,162.13454,-104.43023,-129.73439
9.421997682,161.93939,-104.42392,-131.21814
9.425903983,161.95488,-102.13361,-133.19566
9.429810284,162.21666,-103.44319,-133.59148
9.433716585,162.18681,-102.17458,-133.54842
9.437622886,162.26097,-103.23305,-132.4617
9.441529187,162.06203,-103.59364,-134.46587
9.445435487,162.35881,-106.93588,-134.21106
9.449341788,162.36961,-102.39545,-133.70279
9.453248089,161.93016,-103.06097,-132.09056
9.45715439,162.26208,-106.20467,-133.87341
9.461060691,161.77046,-103.02616,-131.82321
9.464966992,161.98021,-104.61823,-131.55334
9.468873293,161.82549,-105.10465,-132.6687
9.472779593,162.05763,-103.48834,-133.0072
9.476685894,161.81369,-102.21642,-133.33873
9.480592195,161.99541,-104.84245,-134.77652
9.484498496,162.13678,-102.98823,-133.61838
9.488404797,161.69223,-103.79514,-131.71884
9.492311098,162.30573,-103.84966,-132.03754
9.496217399,161.97818,-103.39423,-131.44817
9.5001237,162.20512,-107.66422,-131.52896
9.50403,162.44829,-104.286,-134.45872
9.507936301,162.04837,-103.89398,-132.18303
9.511842602,162.27864,-102.39331,-132.98573
9.515748903,162.33386,-105.44938,-132.37894
9.519655204,162.22934,-103.78046,-134.48576
9.523561505,162.03947,-104.53768,-133.28394
9.527467806,162.19777,-105.48788,-134.20459
9.531374106,162.11099,-104.84764,-133.2388
9.535280407,161.82507,-104.61814,-135.2187
9.539186708,162.23102,-107.35018,-135.02931
9.543093009,162.13928,-105.15681,-132.25558
9.54699931,162.00941,-104.38556,-131.65575
9.550905611,161.8726,-105.36968,-131.8045
9.554811912,162.01555,-109.00435,-132.89409
9.558718212,161.8055,-103.96796,-132.43214
9.562624513,161.88313,-102.45653,-132.51111
9.566530814,162.08716,-103.45943,-134.31923
9.570437115,162.05966,-106.29842,-132.96277
9.574343416,161.98048,-105.62363,-133.87917
9.578249717,161.82153,-106.54319,-133.17795
9.582156018,162.12262,-105.51807,-133.56451
9.586062319,161.91098,-104.03554,-132.83714
9.589968619,162.00774,-101.9403,-134.05074
9.59387492,162.16759,-103.15846,-132.98375
9.597781221,162.03899,-108.74337,-131.85216
9.601687522,161.89764,-101.29195,-134.87395
9.605593823,161.93085,-105.56382,-133.93813
9.609500124,162.14558,-104.76611,-135.43636
9.613406425,162.03984,-103.6898,-131.68655
9.617312725,162.0686,-104.38443,-134.41412
9.621219026,162.07256,-103.47301,-131.60808
9.625125327,162.1857,-104.42345,-131.26376
9.629031628,161.80269,-104.8205,-131.49376
9.632937929,161.78807,-105.24105,-131.2289
9.63684423,161.6584,-104.23588,-130.93192
9.640750531,161.30003,-105.97839,-129.58836
9.644656831,161.72394,-104.13644,-129.76474
9.648563132,161.81372,-105.81657,-129.58691
9.652469433,161.89301,-104.49547,-130.16234
9.656375734,161.692,-106.23662,-129.54462
9.660282035,161.39198,-102.2914,-128.23311
9.664188336,161.52589,-105.41418,-130.11391
9.668094637,161.42744,-103.49625,-128.03516
9.672000938,161.58881,-104.78455,-129.548
9.675907238,161.23132,-103.88802,-129.40231
9.679813539,161.43874,-105.97025,-124.82358
9.68371984,161.48483,-105.07822,-128.72217
9.687626141,161.20532,-103.69249,-128.88345
9.691532442,161.20259,-104.05043,-127.12151
9.695438743,161.6377,-105.9233,-128.2099
9.699345044,161.25896,-106.4556,-125.79972
9.703251344,161.24966,-104.34146,-125.80781
9.707157645,161.23824,-103.93536,-125.0789
9.711063946,161.12187,-104.02262,-125.71993
9.714970247,161.53485,-107.33083,-124.88121
9.718876548,161.72623,-103.47437,-125.55347
9.722782849,160.99571,-104.18702,-123.76416
9.72668915,161.07899,-100.66699,-122.89684
9.73059545,161.32945,-102.88097,-123.51666
9.734501751,161.24657,-104.87139,-125.44511
9.738408052,161.21866,-104.74274,-124.40941
9.742314353,161.41638,-104.45477,-124.12379
9.746220654,161.36369,-103.33402,-126.84325
9.750126955,161.30304,-104.91476,-124.38046
9.754033256,161.53757,-106.52225,-125.97429
9.757939557,161.52649,-101.03406,-124.92216
9.761845857,161.27306,-105.59171,-122.57485
9.765752158,161.33376,-105.16014,-123.54912
9.769658459,161.56816,-99.960457,-125.20208
9.77356476,161.27826,-102.52002,-124.57489
9.777471061,161.39026,-104.47061,-126.28026
9.781377362,161.06927,-106.0427,-124.62509
9.785283663,161.55217,-104.90012,-125.52744
9.789189963,161.56619,-104.5033,-124.40135
9.793096264,161.38435,-103.78267,-123.76395
9.797002565,161.41051,-103.80019,-125.29713
9.800908866,161.36307,-104.38114,-126.52793
9.804815167,161.46584,-101.8417,-124.89925
9.808721468,161.50854,-103.07143,-123.25748
9.812627769,161.46089,-104.25237,-125.33547
9.816534069,161.5652,-105.31358,-125.36752
9.82044037,161.7209,-104.58844,-125.05571
9.824346671,162.0168,-103.27892,-125.51165
9.828252972,161.39578,-104.56273,-125.60994
9.832159273,161.59502,-103.47095,-122.0625
9.836065574,161.34172,-104.09299,-128.27014
9.839971875,161.64702,-104.25583,-124.24173
9.843878175,161.68924,-105.67006,-125.45358
9.847784476,161.5639,-104.66092,-125.89015
9.851690777,161.47066,-100.39339,-126.34028
9.855597078,161.47765,-104.81579,-125.54023
9.859503379,161.37013,-102.64636,-126.54091
9.86340968,161.67992,-101.89184,-128.04959
9.867315981,161.62227,-104.1956,-125.74507
9.871222282,161.54218,-107.59074,-128.00476
9.875128582,161.44263,-105.00154,-126.54212
9.879034883,161.48157,-103.37096,-124.92645
9.882941184,161.78209,-103.61555,-124.80474
9.886847485,161.24132,-104.92715,-124.77608
9.890753786,161.83585,-102.67332,-125.58203
9.894660087,161.64146,-105.27104,-126.80174
9.898566388,161.74696,-104.92306,-127.00571
9.902472688,161.52637,-104.83987,-123.41579
9.906378989,161.35489,-102.94057,-127.08418
9.91028529,161.28099,-102.18554,-124.29962
9.914191591,161.67688,-106.89984,-125.98593
9.918097892,161.2327,-101.50482,-125.36362
9.922004193,161.10072,-103.73405,-125.02267
9.925910494,161.19872,-103.38553,-123.76976
9.929816794,160.9576,-101.00435,-123.76789
9.933723095,161.32104,-104.93553,-125.08835
9.937629396,161.13329,-102.35995,-124.10538
9.941535697,160.90762,-102.30645,-124.54437
9.945441998,161.20067,-104.89301,-125.16476
9.949348299,160.84924,-105.55998,-122.92091
9.9532546,161.14777,-101.29047,-123.21984
9.957160901,160.74922,-103.16518,-126.21266
9.961067201,161.0238,-104.09326,-123.82298
9.964973502,160.76556,-105.15208,-123.26123
9.968879803,160.81519,-103.50674,-123.03041
9.972786104,160.71268,-104.68399,-123.68059
9.976692405,160.61504,-105.70153,-124.05558
9.980598706,160.42711,-105.18059,-122.4809
9.984505007,160.93423,-105.07919,-124.6738
9.988411307,160.68665,-107.20716,-122.78371
9.992317608,160.88078,-102.99454,-124.7751
9.996223909,160.69652,-102.20792,-122.98956
10.00013021,160.86539,-105.85104,-121.60201
10.00403651,160.47411,-106.43741,-121.1526
10.00794281,160.55934,-105.20705,-121.37202
10.01184911,160.60994,-101.24791,-124.34441
10.01575541,160.49477,-103.32968,-119.44531
10.01966171,160.88524,-104.74084,-120.80668
10.02356802,161.01755,-107.09398,-122.07671
10.02747432,160.65186,-103.25375,-123.09394
10.03138062,160.91745,-102.70636,-124.18925
10.03528692,160.81317,-102.79235,-125.02859
10.03919322,160.94327,-104.43513,-123.49214
10.04309952,160.61632,-103.58269,-122.55697
10.04700582,160.69487,-105.55094,-122.27258
10.05091212,160.80728,-102.95972,-121.13047
10.05481842,160.7923,-108.85266,-123.86188
10.05872472,160.50594,-103.16792,-124.53839
10.06263102,160.8177,-106.68345,-122.31888
10.06653732,160.87491,-104.79119,-125.48425
10.07044363,160.92532,-104.15665,-122.69494
10.07434993,160.70763,-104.51073,-122.47581
10.07825623,160.97067,-105.41897,-126.64624
10.08216253,160.66884,-104.89619,-123.21227
10.08606883,160.65221,-103.33012,-125.60937
10.08997513,161.27774,-104.90991,-126.68426
10.09388143,160.88535,-105.05841,-125.13536
10.09778773,160.96227,-104.24856,-126.07323
10.10169403,161.09261,-103.64198,-126.02029
10.10560033,160.80896,-104.04373,-128.06763
10.10950663,160.69563,-105.91277,-125.95
10.11341294,160.93253,-107.29211,-128.33452
10.11731924,160.72913,-106.82263,-125.49068
10.12122554,160.85992,-102.03819,-126.27375
10.12513184,160.8662,-104.87169,-126.55961
10.12903814,161.12419,-104.13923,-125.65491
10.13294444,161.20924,-104.03265,-130.6348
10.13685074,161.04092,-104.52901,-128.48618
10.14075704,161.00529,-105.16531,-127.89352
10.14466334,160.97836,-106.49972,-130.89433
10.14856964,161.2417,-104.2641,-128.43198
10.15247594,161.2366,-105.00208,-129.69012
10.15638224,161.05923,-104.74296,-128.59496
10.16028855,161.44331,-104.51421,-130.22391
10.16419485,161.06871,-103.47221,-129.54305
10.16810115,160.80045,-103.83485,-127.45938
10.17200745,161.15082,-106.45061,-130.86853
10.17591375,161.21249,-104.00637,-129.11421
10.17982005,161.20955,-104.36696,-129.16805
10.18372635,161.26372,-105.08448,-129.4568
10.18763265,161.26035,-105.19266,-129.79533
10.19153895,161.1832,-106.55683,-130.16219
10.19544525,161.24353,-106.4672,-130.87025
10.19935155,161.85925,-103.58818,-128.58434
10.20325785,161.35083,-108.9252,-132.14204
10.20716416,161.2388,-105.40392,-130.23022
10.21107046,161.09711,-103.78551,-133.03644
10.21497676,161.35428,-106.96626,-131.41379
10.21888306,161.15881,-103.30047,-130.66624
10.22278936,161.32013,-107.73427,-131.56084
10.22669566,161.48535,-105.83916,-132.17625
10.23060196,161.16391,-104.95141,-129.98128
10.23450826,161.28131,-104.56503,-133.08739
10.23841456,161.36597,-104.0989,-132.82919
10.24232086,161.37904,-108.79159,-132.4744
10.24622716,161.42421,-107.02808,-133.2271
10.25013347,161.4838,-105.02209,-133.16972
10.25403977,161.39926,-104.4076,-132.02951
10.25794607,161.36302,-103.31825,-130.68895
10.26185237,161.07079,-106.19247,-133.13414
10.26575867,161.16977,-103.23146,-131.08345
10.26966497,161.31526,-105.34913,-133.23178
10.27357127,161.37805,-106.31844,-131.7442
10.27747757,161.20854,-106.10547,-130.19792
10.28138387,161.24149,-106.19323,-132.42107
10.28529017,161.10887,-106.21349,-132.01891
10.28919647,161.40462,-105.92963,-131.67377
10.29310277,160.95023,-108.34486,-133.66399
10.29700908,161.28902,-106.84142,-131.33331
10.30091538,161.16017,-105.63751,-130.83249
10.30482168,161.12204,-103.87106,-131.12123
10.30872798,160.9716,-105.08501,-132.39694
10.31263428,161.11208,-107.4574,-131.93387
10.31654058,161.02606,-106.06088,-130.92841
10.32044688,161.4368,-102.80457,-132.39555
10.32435318,161.14995,-106.82064,-132.99628
10.32825948,161.093,-107.5267,-133.17102
10.33216578,160.87923,-103.53332,-133.98503
10.33607208,160.90514,-107.54614,-132.74109
10.33997839,160.89778,-103.415,-132.27048
10.34388469,160.7989,-106.97991,-132.35481
10.34779099,160.46748,-106.18825,-131.20796
10.35169729,161.00206,-105.19875,-132.84808
10.35560359,160.68112,-107.9763,-132.79195
10.35950989,161.15973,-105.75143,-131.67567
10.36341619,160.51347,-105.31191,-130.89291
10.36732249,160.57527,-106.89809,-131.19666
10.37122879,160.81741,-104.83241,-130.18871
10.37513509,160.6163,-104.43454,-130.6277
10.37904139,160.73096,-103.65951,-130.649
10.38294769,160.89893,-103.96438,-131.8019
10.386854,160.79074,-106.15713,-132.67891
10.3907603,160.58177,-106.16725,-131.99281
10.3946666,160.4279,-103.70655,-131.43582
10.3985729,160.78775,-107.26055,-129.80739
10.4024792,160.70203,-106.46427,-131.31535
10.4063855,160.32224,-106.85242,-130.66461
10.4102918,160.57211,-107.84251,-131.54507
10.4141981,160.18747,-107.41077,-130.24142
10.4181044,160.62842,-106.10017,-129.80907
10.4220107,160.53183,-104.68031,-130.23769
10.425917,160.20204,-103.74883,-130.90269
10.4298233,160.47823,-105.18324,-130.26685
10.43372961,160.40526,-107.52192,-128.45596
10.43763591,160.73732,-104.70228,-130.42767
10.44154221,160.358,-103.84428,-130.92216
10.44544851,160.52669,-103.28016,-129.34363
10.44935481,160.62231,-104.89174,-130.48016
10.45326111,160.48853,-105.29541,-130.30254
10.45716741,160.68132,-107.77041,-128.97447
10.46107371,160.1835,-104.75491,-127.94188
10.46498001,160.47491,-106.28357,-132.09987
10.46888631,160.82692,-104.73551,-129.93108
10.47279261,160.33571,-107.91701,-131.02766
10.47669892,160.55907,-107.07718,-127.41699
10.48060522,160.52579,-106.89197,-127.54842
10.48451152,160.16931,-106.712,-127.6929
10.48841782,160.4808,-106.24228,-128.0242
10.49232412,160.71068,-103.54375,-129.20441
10.49623042,160.7738,-103.42953,-127.49813
10.50013672,160.67514,-102.4623,-127.73728
10.50404302,160.41855,-107.02986,-127.86531
10.50794932,160.74948,-105.95944,-127.8547
10.51185562,160.54485,-105.53053,-129.83348
