850nm,640nm,940nm,580nm
889928,-1.03056e+06,993911,-1.41288e+06
890058,-1.03175e+06,993318,-1.41214e+06
889618,-1.03138e+06,992099,-1.41189e+06
890198,-1.03142e+06,992624,-1.41176e+06
890429,-1.03182e+06,991206,-1.41133e+06
890805,-1.03167e+06,990560,-1.41189e+06
890073,-1.03226e+06,989795,-1.4118e+06
890461,-1.03174e+06,990723,-1.41207e+06
890653,-1.03013e+06,994760,-1.41084e+06
890226,-1.02794e+06,1.00288e+06,-1.41142e+06
889130,-1.02521e+06,1.01537e+06,-1.41202e+06
889115,-1.02186e+06,1.02864e+06,-1.41055e+06
888529,-1.0177e+06,1.04226e+06,-1.41057e+06
888103,-1.01565e+06,1.05109e+06,-1.41103e+06
887025,-1.01447e+06,1.05395e+06,-1.41215e+06
886874,-1.0146e+06,1.05219e+06,-1.4112e+06
887716,-1.01513e+06,1.04882e+06,-1.41185e+06
888190,-1.01726e+06,1.0438e+06,-1.41125e+06
887527,-1.01881e+06,1.03928e+06,-1.41286e+06
888120,-1.02024e+06,1.03458e+06,-1.41272e+06
888458,-1.02067e+06,1.03294e+06,-1.4115e+06
888619,-1.02155e+06,1.02898e+06,-1.41226e+06
888755,-1.02323e+06,1.02507e+06,-1.41242e+06
888727,-1.02423e+06,1.02133e+06,-1.41309e+06
889009,-1.02518e+06,1.01754e+06,-1.41236e+06
889182,-1.02562e+06,1.01538e+06,-1.41192e+06
889309,-1.02604e+06,1.01341e+06,-1.41204e+06
889559,-1.02665e+06,1.01256e+06,-1.41165e+06
889365,-1.02633e+06,1.01299e+06,-1.41154e+06
889333,-1.02566e+06,1.01444e+06,-1.41205e+06
889303,-1.02629e+06,1.0153e+06,-1.41189e+06
889407,-1.02625e+06,1.01539e+06,-1.41166e+06
889487,-1.02579e+06,1.01519e+06,-1.41168e+06
889394,-1.02567e+06,1.01525e+06,-1.41125e+06
889362,-1.02588e+06,1.01286e+06,-1.41126e+06
889173,-1.02687e+06,1.01051e+06,-1.41225e+06
889563,-1.02728e+06,1.00783e+06,-1.41218e+06
889764,-1.02759e+06,1.00669e+06,-1.41113e+06
890378,-1.02853e+06,1.00435e+06,-1.41099e+06
890169,-1.02929e+06,1.00153e+06,-1.41144e+06
890454,-1.02968e+06,999828,-1.411e+06
890674,-1.02986e+06,998556,-1.41073e+06
890325,-1.03027e+06,995798,-1.41143e+06
890598,-1.03162e+06,993907,-1.41174e+06
890321,-1.03265e+06,992220,-1.411e+06
890594,-1.03118e+06,992286,-1.41139e+06
890960,-1.03151e+06,991507,-1.41104e+06
890501,-1.03195e+06,990522,-1.41128e+06
891137,-1.03277e+06,989604,-1.41061e+06
891058,-1.03211e+06,989441,-1.41087e+06
890740,-1.03239e+06,988042,-1.41074e+06
890553,-1.03325e+06,988001,-1.41059e+06
890615,-1.03337e+06,987297,-1.41036e+06
891626,-1.03305e+06,985629,-1.4097e+06
891353,-1.03375e+06,984457,-1.40989e+06
890947,-1.03404e+06,982415,-1.41056e+06
891299,-1.03362e+06,983575,-1.40987e+06
891114,-1.03199e+06,992226,-1.40984e+06
890600,-1.02898e+06,1.00297e+06,-1.40927e+06
890092,-1.02579e+06,1.01837e+06,-1.40977e+06
889062,-1.02212e+06,1.03181e+06,-1.40985e+06
888422,-1.01919e+06,1.04266e+06,-1.40964e+06
888083,-1.01751e+06,1.04765e+06,-1.40971e+06
887758,-1.01711e+06,1.04771e+06,-1.40977e+06
888025,-1.01828e+06,1.04439e+06,-1.40997e+06
888046,-1.01972e+06,1.04109e+06,-1.4104e+06
888905,-1.0208e+06,1.03535e+06,-1.41007e+06
888685,-1.0224e+06,1.03051e+06,-1.41018e+06
888287,-1.02393e+06,1.02664e+06,-1.4113e+06
889275,-1.02502e+06,1.02293e+06,-1.41029e+06
889595,-1.02675e+06,1.01899e+06,-1.41026e+06
889826,-1.02723e+06,1.01509e+06,-1.41096e+06
888902,-1.02824e+06,1.01035e+06,-1.41147e+06
888964,-1.02945e+06,1.00798e+06,-1.41056e+06
889610,-1.02905e+06,1.00533e+06,-1.41093e+06
890235,-1.03009e+06,1.00391e+06,-1.41027e+06
889356,-1.0303e+06,1.00281e+06,-1.41127e+06
888880,-1.0303e+06,1.00359e+06,-1.41072e+06
890126,-1.03029e+06,1.00421e+06,-1.41024e+06
889465,-1.02941e+06,1.00482e+06,-1.41039e+06
889303,-1.02975e+06,1.00449e+06,-1.4104e+06
889004,-1.03016e+06,1.00485e+06,-1.41115e+06
889606,-1.02975e+06,1.00508e+06,-1.41016e+06
889988,-1.02978e+06,1.00434e+06,-1.41004e+06
889582,-1.03004e+06,1.00241e+06,-1.41003e+06
889280,-1.0311e+06,1.00051e+06,-1.41049e+06
889906,-1.03073e+06,997801,-1.41002e+06
890241,-1.03154e+06,996200,-1.40982e+06
889908,-1.03183e+06,994570,-1.41022e+06
889919,-1.03227e+06,993269,-1.40991e+06
890591,-1.03205e+06,992887,-1.40965e+06
890708,-1.03153e+06,992469,-1.40953e+06
889921,-1.03178e+06,991601,-1.4106e+06
890380,-1.0329e+06,989769,-1.40986e+06
890979,-1.03187e+06,989850,-1.40923e+06
890706,-1.03235e+06,989820,-1.4093e+06
890222,-1.03251e+06,988792,-1.41045e+06
890828,-1.03199e+06,989253,-1.40972e+06
890518,-1.03275e+06,989010,-1.40991e+06
890534,-1.03254e+06,987304,-1.40933e+06
890327,-1.03285e+06,986299,-1.40995e+06
891197,-1.03265e+06,986570,-1.40857e+06
891015,-1.03244e+06,986120,-1.4084e+06
890710,-1.03304e+06,985708,-1.40895e+06
890488,-1.03274e+06,986248,-1.40975e+06
890698,-1.03135e+06,990725,-1.40828e+06
890903,-1.02923e+06,999411,-1.40815e+06
889902,-1.02675e+06,1.01155e+06,-1.40838e+06
888668,-1.02246e+06,1.02654e+06,-1.4085e+06
888194,-1.01839e+06,1.03902e+06,-1.40877e+06
888207,-1.01572e+06,1.04935e+06,-1.40815e+06
887468,-1.0147e+06,1.05192e+06,-1.40885e+06
887565,-1.01549e+06,1.05052e+06,-1.40885e+06
887392,-1.01656e+06,1.0463e+06,-1.40842e+06
887946,-1.01807e+06,1.04274e+06,-1.40863e+06
888253,-1.02008e+06,1.03676e+06,-1.40876e+06
888245,-1.02113e+06,1.03262e+06,-1.40916e+06
888300,-1.02233e+06,1.02968e+06,-1.40997e+06
888900,-1.02234e+06,1.02688e+06,-1.40962e+06
888721,-1.02398e+06,1.02275e+06,-1.40969e+06
888867,-1.02492e+06,1.01814e+06,-1.41017e+06
888823,-1.02616e+06,1.01429e+06,-1.40972e+06
889250,-1.02691e+06,1.01259e+06,-1.40937e+06
889121,-1.02652e+06,1.01152e+06,-1.41006e+06
888956,-1.02731e+06,1.01086e+06,-1.41025e+06
889455,-1.02771e+06,1.01053e+06,-1.40912e+06
889764,-1.02742e+06,1.01093e+06,-1.40933e+06
889686,-1.02745e+06,1.01124e+06,-1.40867e+06
888951,-1.02717e+06,1.01198e+06,-1.4089e+06
889123,-1.02657e+06,1.01194e+06,-1.40916e+06
889186,-1.02747e+06,1.01159e+06,-1.40901e+06
889709,-1.02673e+06,1.00998e+06,-1.40931e+06
889339,-1.02743e+06,1.00853e+06,-1.40933e+06
889448,-1.02836e+06,1.00545e+06,-1.40875e+06
889580,-1.0286e+06,1.00314e+06,-1.40949e+06
889949,-1.02961e+06,1.00159e+06,-1.40848e+06
890316,-1.02969e+06,999745,-1.40837e+06
889736,-1.03018e+06,997970,-1.40874e+06
890437,-1.03012e+06,995967,-1.40835e+06
890795,-1.03131e+06,994501,-1.40825e+06
890448,-1.0314e+06,992222,-1.40794e+06
890192,-1.03159e+06,990776,-1.40912e+06
890437,-1.03156e+06,990748,-1.40891e+06
890862,-1.03156e+06,990375,-1.4076e+06
890685,-1.03194e+06,988707,-1.40862e+06
890274,-1.03249e+06,987308,-1.40795e+06
890617,-1.033e+06,987133,-1.40882e+06
890852,-1.03231e+06,987018,-1.40809e+06
891276,-1.03265e+06,986580,-1.40765e+06
891089,-1.03289e+06,985803,-1.40738e+06
891436,-1.03242e+06,985817,-1.4078e+06
890683,-1.03287e+06,984491,-1.40734e+06
890939,-1.03347e+06,982694,-1.40807e+06
891732,-1.03302e+06,985376,-1.40673e+06
891566,-1.03121e+06,990819,-1.40751e+06
890668,-1.02874e+06,1.00209e+06,-1.40779e+06
889652,-1.02516e+06,1.01517e+06,-1.40681e+06
889451,-1.02122e+06,1.02959e+06,-1.40661e+06
889254,-1.01825e+06,1.04061e+06,-1.4066e+06
888338,-1.01635e+06,1.04804e+06,-1.40691e+06
887464,-1.01578e+06,1.04983e+06,-1.40781e+06
888105,-1.01609e+06,1.04742e+06,-1.40697e+06
888693,-1.01749e+06,1.0426e+06,-1.40705e+06
888092,-1.01962e+06,1.03788e+06,-1.40745e+06
888371,-1.02107e+06,1.03172e+06,-1.40758e+06
889192,-1.02183e+06,1.02789e+06,-1.40737e+06
890071,-1.02308e+06,1.02363e+06,-1.40727e+06
889058,-1.02485e+06,1.01952e+06,-1.40756e+06
889209,-1.02579e+06,1.01471e+06,-1.40838e+06
889847,-1.02627e+06,1.01195e+06,-1.40727e+06
889857,-1.02651e+06,1.01058e+06,-1.40808e+06
890585,-1.02721e+06,1.00845e+06,-1.40732e+06
889743,-1.02749e+06,1.00724e+06,-1.40739e+06
890071,-1.02758e+06,1.0075e+06,-1.40712e+06
890113,-1.0273e+06,1.00911e+06,-1.40708e+06
890289,-1.02641e+06,1.01091e+06,-1.40671e+06
889424,-1.02623e+06,1.01212e+06,-1.40804e+06
889508,-1.02673e+06,1.01262e+06,-1.40745e+06
889665,-1.02561e+06,1.01342e+06,-1.40744e+06
890226,-1.02553e+06,1.01237e+06,-1.40649e+06
890442,-1.02691e+06,1.01108e+06,-1.40735e+06
889936,-1.02708e+06,1.00864e+06,-1.40702e+06
889999,-1.02741e+06,1.00767e+06,-1.40738e+06
890574,-1.02745e+06,1.00521e+06,-1.40645e+06
890547,-1.02778e+06,1.00423e+06,-1.40777e+06
890418,-1.02868e+06,1.00191e+06,-1.40671e+06
890615,-1.02886e+06,1.00009e+06,-1.407e+06
891120,-1.02869e+06,999635,-1.40692e+06
891476,-1.02969e+06,998088,-1.40733e+06
890926,-1.03021e+06,995662,-1.40722e+06
891169,-1.03029e+06,994768,-1.40711e+06
891662,-1.03005e+06,994916,-1.40666e+06
891612,-1.0301e+06,994785,-1.40659e+06
891396,-1.03059e+06,993955,-1.40602e+06
891383,-1.03077e+06,994372,-1.40613e+06
891860,-1.03047e+06,993676,-1.40555e+06
891722,-1.03087e+06,992446,-1.4055e+06
891406,-1.0314e+06,992004,-1.40607e+06
891656,-1.03088e+06,991832,-1.40572e+06
892069,-1.03009e+06,993407,-1.40529e+06
891815,-1.02941e+06,997648,-1.40562e+06
891622,-1.0268e+06,1.0059e+06,-1.40609e+06
890693,-1.02403e+06,1.01928e+06,-1.40515e+06
890403,-1.01973e+06,1.03233e+06,-1.40448e+06
890232,-1.01609e+06,1.04531e+06,-1.40486e+06
888791,-1.01436e+06,1.05323e+06,-1.40536e+06
888484,-1.01256e+06,1.05646e+06,-1.40527e+06
889058,-1.01275e+06,1.05647e+06,-1.40574e+06
889331,-1.01359e+06,1.05191e+06,-1.40499e+06
889284,-1.01557e+06,1.0459e+06,-1.4057e+06
889280,-1.01761e+06,1.03963e+06,-1.40584e+06
889612,-1.01907e+06,1.03466e+06,-1.40525e+06
890704,-1.01997e+06,1.03134e+06,-1.40522e+06
890386,-1.02107e+06,1.02783e+06,-1.40575e+06
890393,-1.02238e+06,1.02348e+06,-1.40578e+06
890860,-1.02332e+06,1.01938e+06,-1.4066e+06
891218,-1.02409e+06,1.01633e+06,-1.40519e+06
890911,-1.02489e+06,1.01499e+06,-1.40601e+06
890805,-1.02466e+06,1.01494e+06,-1.40653e+06
890820,-1.02488e+06,1.01553e+06,-1.4057e+06
891114,-1.02376e+06,1.01666e+06,-1.40565e+06
891502,-1.02365e+06,1.01813e+06,-1.40512e+06
890905,-1.02413e+06,1.01933e+06,-1.40568e+06
890886,-1.02305e+06,1.02089e+06,-1.40554e+06
891146,-1.02261e+06,1.02128e+06,-1.40468e+06
891203,-1.02282e+06,1.02017e+06,-1.40481e+06
891084,-1.02365e+06,1.0187e+06,-1.40518e+06
891171,-1.02357e+06,1.01748e+06,-1.40591e+06
891485,-1.02446e+06,1.01601e+06,-1.40517e+06
891828,-1.02399e+06,1.0148e+06,-1.40554e+06
891679,-1.02487e+06,1.01208e+06,-1.40544e+06
891929,-1.02551e+06,1.00984e+06,-1.40568e+06
892107,-1.02587e+06,1.00775e+06,-1.40551e+06
892170,-1.02689e+06,1.00717e+06,-1.40516e+06
892048,-1.02731e+06,1.00496e+06,-1.40449e+06
892170,-1.02712e+06,1.00323e+06,-1.40555e+06
892454,-1.02714e+06,1.00247e+06,-1.40512e+06
893165,-1.02712e+06,1.00231e+06,-1.40422e+06
893159,-1.02831e+06,1.00075e+06,-1.40425e+06
892579,-1.02843e+06,999932,-1.40514e+06
892645,-1.02794e+06,1.00012e+06,-1.40433e+06
893159,-1.02799e+06,999521,-1.40371e+06
893167,-1.02809e+06,998456,-1.40366e+06
892795,-1.02818e+06,998277,-1.40475e+06
893622,-1.0288e+06,997684,-1.4039e+06
893836,-1.02724e+06,1.0003e+06,-1.40379e+06
892867,-1.02542e+06,1.00864e+06,-1.40407e+06
892319,-1.02319e+06,1.01827e+06,-1.40369e+06
891624,-1.01985e+06,1.03403e+06,-1.40366e+06
891595,-1.01508e+06,1.04642e+06,-1.40358e+06
890873,-1.01218e+06,1.05774e+06,-1.40303e+06
889817,-1.0109e+06,1.06163e+06,-1.40358e+06
889891,-1.01032e+06,1.06187e+06,-1.40382e+06
890177,-1.01185e+06,1.05997e+06,-1.4042e+06
890306,-1.01282e+06,1.0545e+06,-1.40452e+06
890372,-1.01479e+06,1.04841e+06,-1.40423e+06
890744,-1.01646e+06,1.04345e+06,-1.40492e+06
891248,-1.01776e+06,1.0382e+06,-1.4049e+06
891950,-1.01863e+06,1.03399e+06,-1.40384e+06
892210,-1.02028e+06,1.02944e+06,-1.40417e+06
892061,-1.02146e+06,1.02549e+06,-1.40424e+06
892562,-1.02299e+06,1.02235e+06,-1.40384e+06
892522,-1.02265e+06,1.02052e+06,-1.40447e+06
892492,-1.0241e+06,1.01851e+06,-1.40388e+06
892229,-1.0237e+06,1.0182e+06,-1.4039e+06
892321,-1.02317e+06,1.01975e+06,-1.40416e+06
892664,-1.02253e+06,1.02031e+06,-1.40347e+06
892683,-1.02241e+06,1.02182e+06,-1.40368e+06
892012,-1.02213e+06,1.02293e+06,-1.40453e+06
892198,-1.02203e+06,1.02404e+06,-1.40367e+06
892543,-1.02158e+06,1.02297e+06,-1.40345e+06
892172,-1.02243e+06,1.02236e+06,-1.4037e+06
892027,-1.02301e+06,1.02039e+06,-1.40373e+06
892387,-1.02279e+06,1.01856e+06,-1.40436e+06
892767,-1.02369e+06,1.01754e+06,-1.40336e+06
893040,-1.02405e+06,1.01516e+06,-1.40345e+06
892556,-1.02533e+06,1.0131e+06,-1.40458e+06
892583,-1.0253e+06,1.01095e+06,-1.40319e+06
893637,-1.02583e+06,1.00896e+06,-1.40363e+06
893812,-1.02574e+06,1.0066e+06,-1.40388e+06
893068,-1.02649e+06,1.004e+06,-1.40391e+06
893491,-1.02796e+06,1.00233e+06,-1.40397e+06
893607,-1.02756e+06,1.00244e+06,-1.40312e+06
893747,-1.02772e+06,1.00181e+06,-1.40281e+06
893844,-1.02782e+06,1.0004e+06,-1.40305e+06
893984,-1.02884e+06,999326,-1.40318e+06
893491,-1.02766e+06,999347,-1.40329e+06
894691,-1.02799e+06,997976,-1.40232e+06
894059,-1.02816e+06,996093,-1.40353e+06
893705,-1.02869e+06,996262,-1.4036e+06
894228,-1.02888e+06,996905,-1.40317e+06
894350,-1.02679e+06,1.0007e+06,-1.40287e+06
893662,-1.02524e+06,1.01054e+06,-1.40233e+06
892901,-1.02292e+06,1.02035e+06,-1.40247e+06
892236,-1.01887e+06,1.03543e+06,-1.40325e+06
892131,-1.01456e+06,1.04841e+06,-1.40284e+06
890981,-1.01122e+06,1.05967e+06,-1.40294e+06
890655,-1.01076e+06,1.06331e+06,-1.40311e+06
890218,-1.01009e+06,1.06263e+06,-1.40363e+06
890414,-1.01083e+06,1.0597e+06,-1.4025e+06
890881,-1.01295e+06,1.05394e+06,-1.40325e+06
891510,-1.01576e+06,1.04818e+06,-1.40346e+06
891451,-1.01734e+06,1.04289e+06,-1.40354e+06
891895,-1.01867e+06,1.03801e+06,-1.40296e+06
891694,-1.01903e+06,1.0349e+06,-1.40385e+06
891933,-1.02023e+06,1.03058e+06,-1.40355e+06
892353,-1.02188e+06,1.02643e+06,-1.40359e+06
891976,-1.02247e+06,1.0225e+06,-1.40304e+06
892515,-1.02288e+06,1.02052e+06,-1.40387e+06
892549,-1.02357e+06,1.01909e+06,-1.40368e+06
892353,-1.02449e+06,1.01827e+06,-1.40368e+06
892481,-1.02359e+06,1.0197e+06,-1.40427e+06
892997,-1.02248e+06,1.02052e+06,-1.40283e+06
892553,-1.02323e+06,1.02214e+06,-1.40321e+06
892558,-1.02279e+06,1.02196e+06,-1.40451e+06
892536,-1.02298e+06,1.02232e+06,-1.40342e+06
892737,-1.02271e+06,1.0225e+06,-1.4033e+06
892221,-1.02261e+06,1.02205e+06,-1.40297e+06
892660,-1.0241e+06,1.01928e+06,-1.4033e+06
892643,-1.024e+06,1.01757e+06,-1.40333e+06
892839,-1.02384e+06,1.01581e+06,-1.40306e+06
893029,-1.02452e+06,1.01384e+06,-1.4033e+06
892835,-1.0253e+06,1.01122e+06,-1.40345e+06
892536,-1.02607e+06,1.00875e+06,-1.40397e+06
892854,-1.02642e+06,1.00699e+06,-1.40365e+06
893170,-1.02673e+06,1.0052e+06,-1.40266e+06
893176,-1.02732e+06,1.00367e+06,-1.40407e+06
893438,-1.02807e+06,1.00216e+06,-1.40306e+06
893508,-1.02869e+06,1.00099e+06,-1.40293e+06
893334,-1.02921e+06,1.00011e+06,-1.4026e+06
893859,-1.02881e+06,998680,-1.40263e+06
893233,-1.0295e+06,997889,-1.4031e+06
893959,-1.03021e+06,996742,-1.40274e+06
893767,-1.02915e+06,996276,-1.40344e+06
893669,-1.02947e+06,994706,-1.40359e+06
893485,-1.02986e+06,994012,-1.40268e+06
894130,-1.02966e+06,995142,-1.40206e+06
894075,-1.02864e+06,997544,-1.40205e+06
893264,-1.02671e+06,1.00622e+06,-1.40307e+06
892498,-1.02507e+06,1.01564e+06,-1.4025e+06
892454,-1.02087e+06,1.0301e+06,-1.40226e+06
891637,-1.01669e+06,1.04334e+06,-1.40275e+06
891051,-1.01364e+06,1.05492e+06,-1.40202e+06
890420,-1.01271e+06,1.06005e+06,-1.40246e+06
889959,-1.01155e+06,1.06064e+06,-1.40379e+06
890440,-1.01268e+06,1.05798e+06,-1.40234e+06
890247,-1.01441e+06,1.05224e+06,-1.4035e+06
890395,-1.01664e+06,1.04561e+06,-1.40326e+06
891125,-1.01856e+06,1.03952e+06,-1.4045e+06
891064,-1.01948e+06,1.03548e+06,-1.40326e+06
891885,-1.02082e+06,1.03103e+06,-1.40305e+06
891600,-1.02236e+06,1.02601e+06,-1.40388e+06
891400,-1.02416e+06,1.02231e+06,-1.40401e+06
891851,-1.02457e+06,1.01746e+06,-1.40317e+06
892141,-1.0251e+06,1.01561e+06,-1.40323e+06
891862,-1.02601e+06,1.01492e+06,-1.40358e+06
891851,-1.02576e+06,1.01427e+06,-1.40455e+06
892039,-1.02643e+06,1.01357e+06,-1.40356e+06
892058,-1.02547e+06,1.01429e+06,-1.40406e+06
891843,-1.02632e+06,1.01403e+06,-1.40341e+06
891551,-1.02555e+06,1.015e+06,-1.4038e+06
892251,-1.0251e+06,1.01613e+06,-1.40356e+06
891931,-1.02478e+06,1.01635e+06,-1.40367e+06
891686,-1.02547e+06,1.0162e+06,-1.40453e+06
891749,-1.02563e+06,1.01468e+06,-1.40376e+06
891802,-1.02595e+06,1.0115e+06,-1.40433e+06
892621,-1.0269e+06,1.01028e+06,-1.40313e+06
892257,-1.02675e+06,1.00789e+06,-1.40327e+06
892317,-1.02759e+06,1.00566e+06,-1.40365e+06
892583,-1.02803e+06,1.00406e+06,-1.40357e+06
892304,-1.02837e+06,1.00242e+06,-1.40311e+06
892460,-1.02871e+06,1.00017e+06,-1.40399e+06
892729,-1.02978e+06,998727,-1.40355e+06
893002,-1.02959e+06,997622,-1.40365e+06
892848,-1.02958e+06,996709,-1.40339e+06
892841,-1.03043e+06,996012,-1.40295e+06
892852,-1.03043e+06,994774,-1.40304e+06
893114,-1.03045e+06,994001,-1.40335e+06
893485,-1.03031e+06,994112,-1.40304e+06
892987,-1.03061e+06,993568,-1.40269e+06
892784,-1.03045e+06,992395,-1.40412e+06
892803,-1.03064e+06,991898,-1.40394e+06
893180,-1.03053e+06,991672,-1.40323e+06
893496,-1.03033e+06,994956,-1.40255e+06
892581,-1.02841e+06,1.00374e+06,-1.40284e+06
892097,-1.02584e+06,1.01458e+06,-1.40373e+06
891602,-1.02175e+06,1.03027e+06,-1.40275e+06
891178,-1.01764e+06,1.04324e+06,-1.40262e+06
890190,-1.01442e+06,1.05278e+06,-1.40287e+06
889436,-1.01319e+06,1.05748e+06,-1.40327e+06
890179,-1.01373e+06,1.05682e+06,-1.40299e+06
890120,-1.01461e+06,1.05339e+06,-1.40325e+06
889881,-1.01604e+06,1.0467e+06,-1.40338e+06
890399,-1.01871e+06,1.0413e+06,-1.40376e+06
890611,-1.01919e+06,1.03578e+06,-1.40444e+06
891618,-1.02073e+06,1.03083e+06,-1.40361e+06
891210,-1.02213e+06,1.02646e+06,-1.4039e+06
891161,-1.02349e+06,1.02257e+06,-1.40396e+06
891895,-1.0241e+06,1.01922e+06,-1.40396e+06
892346,-1.02471e+06,1.01604e+06,-1.40384e+06
891939,-1.02608e+06,1.01396e+06,-1.40393e+06
892103,-1.02669e+06,1.01263e+06,-1.40398e+06
891413,-1.02623e+06,1.01258e+06,-1.40396e+06
892016,-1.02493e+06,1.01414e+06,-1.40462e+06
891984,-1.0248e+06,1.01574e+06,-1.40394e+06
891534,-1.02463e+06,1.01733e+06,-1.40477e+06
891293,-1.02424e+06,1.01839e+06,-1.40473e+06
891862,-1.02379e+06,1.01863e+06,-1.40466e+06
892259,-1.02393e+06,1.01781e+06,-1.40394e+06
892044,-1.02455e+06,1.01674e+06,-1.40376e+06
892120,-1.02508e+06,1.01475e+06,-1.40387e+06
892261,-1.02504e+06,1.01357e+06,-1.40373e+06
892843,-1.02593e+06,1.01221e+06,-1.40393e+06
892056,-1.02628e+06,1.01001e+06,-1.40478e+06
892229,-1.02691e+06,1.00766e+06,-1.40502e+06
892500,-1.02675e+06,1.00614e+06,-1.40448e+06
893368,-1.02737e+06,1.00463e+06,-1.40351e+06
893161,-1.02773e+06,1.00355e+06,-1.40451e+06
892613,-1.02862e+06,1.0023e+06,-1.40395e+06
893019,-1.02877e+06,1.00105e+06,-1.40405e+06
893916,-1.02872e+06,1.00025e+06,-1.40318e+06
893533,-1.02848e+06,999311,-1.40357e+06
893287,-1.029e+06,998349,-1.40365e+06
893802,-1.0288e+06,997904,-1.40317e+06
893707,-1.02879e+06,996799,-1.40314e+06
893592,-1.02929e+06,995477,-1.40334e+06
893899,-1.02968e+06,995440,-1.40335e+06
894283,-1.02954e+06,997595,-1.40314e+06
893846,-1.02669e+06,1.00487e+06,-1.403e+06
893724,-1.0243e+06,1.01524e+06,-1.40374e+06
892687,-1.02158e+06,1.02968e+06,-1.40299e+06
891442,-1.01709e+06,1.0425e+06,-1.40331e+06
891273,-1.01382e+06,1.05518e+06,-1.4032e+06
890710,-1.01141e+06,1.06023e+06,-1.40339e+06
889997,-1.01144e+06,1.06091e+06,-1.40365e+06
890640,-1.01337e+06,1.05823e+06,-1.40358e+06
890952,-1.01366e+06,1.05307e+06,-1.40357e+06
891775,-1.01642e+06,1.04675e+06,-1.40402e+06
891455,-1.01796e+06,1.04149e+06,-1.40417e+06
891421,-1.02007e+06,1.03665e+06,-1.40442e+06
891965,-1.01998e+06,1.03319e+06,-1.40482e+06
892240,-1.02115e+06,1.02957e+06,-1.40481e+06
891956,-1.02239e+06,1.02546e+06,-1.40469e+06
892573,-1.02466e+06,1.02067e+06,-1.40466e+06
892824,-1.02414e+06,1.01898e+06,-1.40425e+06
892875,-1.02439e+06,1.01741e+06,-1.40485e+06
892943,-1.02503e+06,1.01589e+06,-1.4058e+06
892340,-1.025e+06,1.01706e+06,-1.40476e+06
892353,-1.02464e+06,1.01752e+06,-1.40408e+06
893309,-1.02447e+06,1.01948e+06,-1.40404e+06
892892,-1.02337e+06,1.01971e+06,-1.40495e+06
892991,-1.02413e+06,1.02005e+06,-1.40433e+06
892351,-1.02399e+06,1.02073e+06,-1.40444e+06
893004,-1.02353e+06,1.01969e+06,-1.40407e+06
893372,-1.02418e+06,1.01791e+06,-1.4045e+06
892655,-1.02504e+06,1.01598e+06,-1.40518e+06
892767,-1.02603e+06,1.01397e+06,-1.40436e+06
893370,-1.02555e+06,1.01186e+06,-1.4041e+06
893889,-1.02657e+06,1.01026e+06,-1.40503e+06
893479,-1.02732e+06,1.00842e+06,-1.40425e+06
893332,-1.02741e+06,1.006e+06,-1.40438e+06
893764,-1.02741e+06,1.00602e+06,-1.40409e+06
894488,-1.02808e+06,1.00465e+06,-1.40383e+06
893660,-1.02795e+06,1.00295e+06,-1.40499e+06
893620,-1.02835e+06,1.00142e+06,-1.40513e+06
894281,-1.02821e+06,1.0008e+06,-1.40385e+06
894401,-1.02895e+06,999620,-1.40434e+06
894198,-1.02901e+06,998399,-1.40469e+06
894185,-1.02947e+06,997136,-1.40398e+06
894160,-1.03014e+06,996694,-1.40361e+06
894985,-1.0291e+06,996240,-1.40327e+06
894667,-1.0293e+06,998503,-1.40336e+06
894388,-1.02792e+06,1.00429e+06,-1.4037e+06
893582,-1.02509e+06,1.01695e+06,-1.40393e+06
893614,-1.02095e+06,1.02927e+06,-1.40313e+06
892468,-1.01733e+06,1.04432e+06,-1.40413e+06
891864,-1.01516e+06,1.05353e+06,-1.40394e+06
891451,-1.01302e+06,1.06055e+06,-1.404e+06
891159,-1.01157e+06,1.06112e+06,-1.40463e+06
891199,-1.0127e+06,1.05848e+06,-1.40421e+06
891870,-1.01483e+06,1.0531e+06,-1.4053e+06
891345,-1.01667e+06,1.04664e+06,-1.40465e+06
891908,-1.0183e+06,1.04147e+06,-1.40438e+06
892112,-1.0191e+06,1.03757e+06,-1.40528e+06
892346,-1.02059e+06,1.03306e+06,-1.40518e+06
892272,-1.02195e+06,1.02926e+06,-1.40503e+06
892564,-1.02299e+06,1.02542e+06,-1.40534e+06
892933,-1.02342e+06,1.02263e+06,-1.40536e+06
893199,-1.02441e+06,1.01905e+06,-1.40553e+06
892954,-1.02495e+06,1.01754e+06,-1.40528e+06
893275,-1.02531e+06,1.01665e+06,-1.40501e+06
893187,-1.02555e+06,1.01735e+06,-1.40562e+06
893690,-1.02523e+06,1.0173e+06,-1.40479e+06
893025,-1.0252e+06,1.01756e+06,-1.40589e+06
893355,-1.02483e+06,1.01894e+06,-1.40491e+06
893673,-1.02487e+06,1.02019e+06,-1.40455e+06
892901,-1.02431e+06,1.02075e+06,-1.40561e+06
892841,-1.02468e+06,1.01956e+06,-1.40569e+06
893008,-1.02491e+06,1.01759e+06,-1.40529e+06
893592,-1.02612e+06,1.01458e+06,-1.40562e+06
894040,-1.02617e+06,1.01363e+06,-1.40569e+06
893231,-1.02726e+06,1.01193e+06,-1.40613e+06
893341,-1.02747e+06,1.0104e+06,-1.40523e+06
893618,-1.02793e+06,1.00858e+06,-1.40496e+06
894554,-1.02848e+06,1.00583e+06,-1.4047e+06
893546,-1.02862e+06,1.00416e+06,-1.40578e+06
894010,-1.02959e+06,1.00157e+06,-1.40496e+06
894633,-1.02883e+06,1.00106e+06,-1.40463e+06
894501,-1.02948e+06,1.00012e+06,-1.40518e+06
894352,-1.03077e+06,998844,-1.40495e+06
894008,-1.03039e+06,997823,-1.40494e+06
894552,-1.03018e+06,997064,-1.40497e+06
894411,-1.03048e+06,996481,-1.40455e+06
894530,-1.03073e+06,994289,-1.40529e+06
894257,-1.03136e+06,993218,-1.40526e+06
894623,-1.03187e+06,993921,-1.40424e+06
895171,-1.03004e+06,997771,-1.40399e+06
893825,-1.02817e+06,1.00587e+06,-1.40513e+06
893786,-1.02543e+06,1.01822e+06,-1.40455e+06
893311,-1.02158e+06,1.03104e+06,-1.4041e+06
892609,-1.01801e+06,1.04597e+06,-1.40428e+06
891366,-1.01506e+06,1.05428e+06,-1.40525e+06
890805,-1.01377e+06,1.05885e+06,-1.40555e+06
890774,-1.01413e+06,1.05927e+06,-1.40511e+06
891242,-1.01432e+06,1.0554e+06,-1.4055e+06
891402,-1.01648e+06,1.05043e+06,-1.40545e+06
891538,-1.01858e+06,1.04406e+06,-1.40555e+06
891235,-1.02062e+06,1.03965e+06,-1.40558e+06
892058,-1.02128e+06,1.03586e+06,-1.40558e+06
892158,-1.02178e+06,1.0315e+06,-1.40655e+06
891899,-1.02343e+06,1.0272e+06,-1.40605e+06
892634,-1.02495e+06,1.02297e+06,-1.40651e+06
892547,-1.02563e+06,1.02086e+06,-1.40577e+06
892997,-1.02571e+06,1.01788e+06,-1.40564e+06
892788,-1.02667e+06,1.01625e+06,-1.40584e+06
892733,-1.02685e+06,1.01565e+06,-1.4061e+06
892894,-1.02643e+06,1.01593e+06,-1.40561e+06
892746,-1.02654e+06,1.0172e+06,-1.40568e+06
892513,-1.0264e+06,1.01689e+06,-1.40609e+06
892619,-1.02613e+06,1.01812e+06,-1.40606e+06
892714,-1.02557e+06,1.0191e+06,-1.40585e+06
893042,-1.02558e+06,1.0182e+06,-1.40572e+06
892714,-1.02631e+06,1.01646e+06,-1.40598e+06
892528,-1.02783e+06,1.014e+06,-1.4073e+06
892739,-1.0284e+06,1.01222e+06,-1.40588e+06
892795,-1.02812e+06,1.01072e+06,-1.40583e+06
893523,-1.02881e+06,1.00834e+06,-1.40591e+06
892788,-1.02898e+06,1.00684e+06,-1.40703e+06
892664,-1.02966e+06,1.00388e+06,-1.40706e+06
893426,-1.02971e+06,1.0027e+06,-1.40583e+06
893521,-1.03054e+06,1.00015e+06,-1.40573e+06
893370,-1.03076e+06,998230,-1.40604e+06
893057,-1.03217e+06,996971,-1.40637e+06
893529,-1.03146e+06,997411,-1.40573e+06
893563,-1.03197e+06,996103,-1.40644e+06
893694,-1.03266e+06,995306,-1.40577e+06
893138,-1.0321e+06,994143,-1.40634e+06
893311,-1.03192e+06,993783,-1.40574e+06
893893,-1.03188e+06,993403,-1.4055e+06
893324,-1.03243e+06,991872,-1.40649e+06
893362,-1.03288e+06,990309,-1.40627e+06
894450,-1.03308e+06,990652,-1.40524e+06
893810,-1.03203e+06,992019,-1.40621e+06
893212,-1.0311e+06,997895,-1.40629e+06
892873,-1.02828e+06,1.00892e+06,-1.40543e+06
892882,-1.02485e+06,1.02134e+06,-1.40534e+06
892112,-1.02108e+06,1.03679e+06,-1.40583e+06
891449,-1.01859e+06,1.04569e+06,-1.40631e+06
890325,-1.01801e+06,1.05249e+06,-1.40599e+06
890740,-1.01598e+06,1.05399e+06,-1.40615e+06
891208,-1.01718e+06,1.05161e+06,-1.40557e+06
890679,-1.01842e+06,1.04699e+06,-1.40654e+06
890587,-1.02047e+06,1.0404e+06,-1.40647e+06
891101,-1.02205e+06,1.03472e+06,-1.40616e+06
891877,-1.02338e+06,1.0311e+06,-1.40635e+06
891918,-1.02448e+06,1.02744e+06,-1.40707e+06
891692,-1.0253e+06,1.02376e+06,-1.40678e+06
891914,-1.02649e+06,1.01977e+06,-1.40673e+06
892348,-1.02654e+06,1.01737e+06,-1.4073e+06
891946,-1.02739e+06,1.01525e+06,-1.40687e+06
892329,-1.02815e+06,1.01267e+06,-1.408e+06
891858,-1.02877e+06,1.01241e+06,-1.40689e+06
891851,-1.02745e+06,1.0132e+06,-1.40682e+06
891856,-1.02724e+06,1.01422e+06,-1.4068e+06
891965,-1.02721e+06,1.01421e+06,-1.40687e+06
891626,-1.02722e+06,1.01482e+06,-1.40774e+06
891790,-1.02677e+06,1.01611e+06,-1.40735e+06
891967,-1.02674e+06,1.01577e+06,-1.40644e+06
892001,-1.0271e+06,1.01485e+06,-1.40717e+06
892016,-1.02821e+06,1.01352e+06,-1.40691e+06
892431,-1.02807e+06,1.01151e+06,-1.40684e+06
892302,-1.02837e+06,1.0108e+06,-1.40664e+06
892378,-1.02874e+06,1.00776e+06,-1.40647e+06
892037,-1.02973e+06,1.00638e+06,-1.40717e+06
892361,-1.02961e+06,1.0045e+06,-1.40751e+06
892573,-1.02973e+06,1.00259e+06,-1.40741e+06
892792,-1.03059e+06,1.00109e+06,-1.40724e+06
892553,-1.03105e+06,999045,-1.40764e+06
892439,-1.03094e+06,998857,-1.40764e+06
892875,-1.03083e+06,998426,-1.40678e+06
892803,-1.03142e+06,998441,-1.40721e+06
892714,-1.0313e+06,997185,-1.40736e+06
893025,-1.0316e+06,995449,-1.40639e+06
893620,-1.03208e+06,995617,-1.40603e+06
893048,-1.03198e+06,996366,-1.40614e+06
893006,-1.03172e+06,995637,-1.4071e+06
893468,-1.03224e+06,995340,-1.40624e+06
893519,-1.03164e+06,994922,-1.40586e+06
893571,-1.03195e+06,993989,-1.40641e+06
893338,-1.03185e+06,993470,-1.40692e+06
893543,-1.03095e+06,998192,-1.40567e+06
893102,-1.02762e+06,1.00734e+06,-1.40515e+06
893268,-1.02487e+06,1.02054e+06,-1.40601e+06
891675,-1.02095e+06,1.03295e+06,-1.40653e+06
890937,-1.01762e+06,1.04643e+06,-1.40654e+06
890357,-1.01454e+06,1.05605e+06,-1.40559e+06
890308,-1.01325e+06,1.0601e+06,-1.40641e+06
890495,-1.01392e+06,1.05819e+06,-1.40628e+06
889984,-1.01542e+06,1.05385e+06,-1.40659e+06
890990,-1.01725e+06,1.04803e+06,-1.40668e+06
891327,-1.01887e+06,1.04406e+06,-1.40618e+06
891525,-1.02004e+06,1.0389e+06,-1.40746e+06
891322,-1.02132e+06,1.03497e+06,-1.40694e+06
891297,-1.02216e+06,1.0316e+06,-1.40762e+06
891707,-1.02344e+06,1.02879e+06,-1.40637e+06
891965,-1.02466e+06,1.0242e+06,-1.40651e+06
891694,-1.0261e+06,1.02146e+06,-1.40689e+06
891817,-1.02557e+06,1.01909e+06,-1.40705e+06
892268,-1.02545e+06,1.01852e+06,-1.4063e+06
892556,-1.02556e+06,1.01916e+06,-1.40627e+06
892095,-1.02542e+06,1.01989e+06,-1.40684e+06
892306,-1.02506e+06,1.02164e+06,-1.40739e+06
892653,-1.02507e+06,1.02238e+06,-1.4069e+06
892039,-1.02462e+06,1.02303e+06,-1.40653e+06
892387,-1.02505e+06,1.02362e+06,-1.4064e+06
891963,-1.02427e+06,1.02358e+06,-1.40637e+06
892178,-1.02478e+06,1.02241e+06,-1.40643e+06
893167,-1.02506e+06,1.01981e+06,-1.40597e+06
892481,-1.02585e+06,1.017e+06,-1.40637e+06
892429,-1.02626e+06,1.01588e+06,-1.40711e+06
892826,-1.02608e+06,1.01414e+06,-1.40678e+06
893093,-1.02645e+06,1.01267e+06,-1.40674e+06
892643,-1.02709e+06,1.01096e+06,-1.40705e+06
892892,-1.02772e+06,1.0086e+06,-1.40701e+06
893910,-1.02799e+06,1.00749e+06,-1.40591e+06
893643,-1.02798e+06,1.00643e+06,-1.40569e+06
893315,-1.02897e+06,1.00581e+06,-1.40597e+06
893398,-1.02867e+06,1.00515e+06,-1.40608e+06
894479,-1.02854e+06,1.00504e+06,-1.4056e+06
893784,-1.02867e+06,1.00491e+06,-1.40548e+06
894109,-1.02855e+06,1.00371e+06,-1.40533e+06
894081,-1.02933e+06,1.00311e+06,-1.40543e+06
893823,-1.02901e+06,1.0029e+06,-1.40613e+06
894532,-1.02936e+06,1.00175e+06,-1.40502e+06
894598,-1.02886e+06,1.00165e+06,-1.40599e+06
894617,-1.02912e+06,1.00159e+06,-1.40519e+06
893993,-1.02839e+06,1.00365e+06,-1.40505e+06
894310,-1.02674e+06,1.01215e+06,-1.40467e+06
893863,-1.02437e+06,1.02235e+06,-1.40473e+06
892761,-1.02016e+06,1.03685e+06,-1.40545e+06
892185,-1.01609e+06,1.05027e+06,-1.40572e+06
891557,-1.01271e+06,1.06105e+06,-1.40551e+06
891438,-1.01138e+06,1.06534e+06,-1.40492e+06
890679,-1.01241e+06,1.06531e+06,-1.40529e+06
890547,-1.01294e+06,1.06133e+06,-1.40529e+06
891368,-1.01403e+06,1.05721e+06,-1.40602e+06
891775,-1.0161e+06,1.05234e+06,-1.406e+06
891432,-1.01715e+06,1.04818e+06,-1.40643e+06
891500,-1.01985e+06,1.04307e+06,-1.40607e+06
891969,-1.01933e+06,1.03984e+06,-1.40623e+06
893108,-1.02081e+06,1.03684e+06,-1.40533e+06
892624,-1.02164e+06,1.03319e+06,-1.40679e+06
892672,-1.02358e+06,1.02869e+06,-1.40556e+06
892937,-1.02372e+06,1.02652e+06,-1.40557e+06
893635,-1.02369e+06,1.02477e+06,-1.40527e+06
893447,-1.02358e+06,1.02452e+06,-1.40571e+06
892854,-1.02423e+06,1.0257e+06,-1.40593e+06
893110,-1.02421e+06,1.026e+06,-1.40527e+06
893443,-1.02265e+06,1.02736e+06,-1.4051e+06
893214,-1.02293e+06,1.02858e+06,-1.40538e+06
892698,-1.02313e+06,1.02765e+06,-1.40637e+06
893256,-1.02302e+06,1.02693e+06,-1.40559e+06
893703,-1.0229e+06,1.02661e+06,-1.40493e+06
893899,-1.02338e+06,1.02513e+06,-1.40496e+06
893343,-1.02408e+06,1.02277e+06,-1.40616e+06
893533,-1.02538e+06,1.02032e+06,-1.40559e+06
893353,-1.02482e+06,1.01893e+06,-1.40581e+06
894063,-1.02572e+06,1.01767e+06,-1.40576e+06
893918,-1.02615e+06,1.01565e+06,-1.40608e+06
894079,-1.02669e+06,1.01311e+06,-1.40514e+06
894100,-1.02707e+06,1.01128e+06,-1.40502e+06
894825,-1.02662e+06,1.01092e+06,-1.40543e+06
894511,-1.0274e+06,1.00913e+06,-1.4043e+06
894272,-1.0279e+06,1.008e+06,-1.40505e+06
894672,-1.0284e+06,1.00801e+06,-1.40483e+06
895061,-1.02737e+06,1.00778e+06,-1.40481e+06
895057,-1.02813e+06,1.00704e+06,-1.40406e+06
895303,-1.0288e+06,1.00644e+06,-1.40539e+06
894631,-1.02826e+06,1.00526e+06,-1.40514e+06
894957,-1.02838e+06,1.00606e+06,-1.40403e+06
895531,-1.0286e+06,1.00413e+06,-1.40372e+06
895132,-1.02891e+06,1.00301e+06,-1.40419e+06
895484,-1.02972e+06,1.00259e+06,-1.40429e+06
895870,-1.02956e+06,1.00237e+06,-1.40343e+06
895177,-1.02847e+06,1.00514e+06,-1.40376e+06
895328,-1.02721e+06,1.01271e+06,-1.40353e+06
894079,-1.02374e+06,1.02306e+06,-1.40465e+06
894249,-1.02009e+06,1.03898e+06,-1.40334e+06
893197,-1.01635e+06,1.05171e+06,-1.40336e+06
892164,-1.01246e+06,1.0621e+06,-1.40519e+06
891561,-1.01107e+06,1.06688e+06,-1.40391e+06
891451,-1.01076e+06,1.06802e+06,-1.40473e+06
892338,-1.0118e+06,1.0646e+06,-1.4045e+06
892135,-1.014e+06,1.06026e+06,-1.40406e+06
892348,-1.01525e+06,1.055e+06,-1.40438e+06
892509,-1.01652e+06,1.05085e+06,-1.40439e+06
892607,-1.01768e+06,1.04753e+06,-1.40449e+06
892687,-1.01873e+06,1.04349e+06,-1.40501e+06
893104,-1.02e+06,1.03955e+06,-1.40462e+06
892894,-1.0212e+06,1.03697e+06,-1.40563e+06
893594,-1.02164e+06,1.03251e+06,-1.40506e+06
894373,-1.02245e+06,1.02929e+06,-1.40451e+06
893328,-1.02326e+06,1.02782e+06,-1.40465e+06
893379,-1.02325e+06,1.02608e+06,-1.40517e+06
893624,-1.02314e+06,1.02651e+06,-1.40498e+06
893716,-1.02292e+06,1.02685e+06,-1.40484e+06
893349,-1.0231e+06,1.02742e+06,-1.40454e+06
893679,-1.02316e+06,1.02817e+06,-1.4044e+06
893972,-1.0233e+06,1.02877e+06,-1.40423e+06
893618,-1.02248e+06,1.02878e+06,-1.40421e+06
893262,-1.02307e+06,1.02775e+06,-1.40515e+06
893701,-1.02432e+06,1.02547e+06,-1.4043e+06
893929,-1.02452e+06,1.02392e+06,-1.40424e+06
894416,-1.0252e+06,1.02094e+06,-1.40396e+06
893569,-1.02532e+06,1.0189e+06,-1.405e+06
893876,-1.02663e+06,1.0168e+06,-1.405e+06
894456,-1.0261e+06,1.01588e+06,-1.40478e+06
895117,-1.02692e+06,1.01392e+06,-1.40377e+06
894771,-1.02728e+06,1.01208e+06,-1.40415e+06
894081,-1.02791e+06,1.0089e+06,-1.4049e+06
894714,-1.02825e+06,1.00775e+06,-1.40363e+06
894797,-1.02802e+06,1.00776e+06,-1.40443e+06
895098,-1.02822e+06,1.00639e+06,-1.40372e+06
894511,-1.02955e+06,1.0059e+06,-1.40413e+06
894661,-1.02951e+06,1.00532e+06,-1.40334e+06
895171,-1.02899e+06,1.00532e+06,-1.40396e+06
895510,-1.02881e+06,1.00433e+06,-1.40289e+06
895415,-1.0299e+06,1.00404e+06,-1.40329e+06
894852,-1.02977e+06,1.00359e+06,-1.40364e+06
895334,-1.02888e+06,1.00372e+06,-1.40328e+06
895957,-1.02953e+06,1.0031e+06,-1.40295e+06
895870,-1.02942e+06,1.00145e+06,-1.40395e+06
895646,-1.03005e+06,1.00048e+06,-1.40326e+06
895290,-1.02986e+06,1.00051e+06,-1.4026e+06
895885,-1.02931e+06,1.00072e+06,-1.40246e+06
895580,-1.02806e+06,1.00472e+06,-1.40284e+06
894564,-1.02683e+06,1.01531e+06,-1.40295e+06
894147,-1.0227e+06,1.02905e+06,-1.40274e+06
893887,-1.01828e+06,1.04325e+06,-1.40238e+06
893201,-1.01453e+06,1.057e+06,-1.40268e+06
892183,-1.01281e+06,1.06355e+06,-1.40274e+06
891788,-1.01186e+06,1.06573e+06,-1.40298e+06
892368,-1.01208e+06,1.06463e+06,-1.40258e+06
892378,-1.01388e+06,1.06049e+06,-1.40365e+06
892101,-1.01526e+06,1.05502e+06,-1.40503e+06
892824,-1.01741e+06,1.0497e+06,-1.40338e+06
893275,-1.01897e+06,1.04629e+06,-1.40312e+06
892897,-1.01933e+06,1.04243e+06,-1.40403e+06
893119,-1.02064e+06,1.03842e+06,-1.40381e+06
893409,-1.02246e+06,1.03513e+06,-1.40369e+06
893804,-1.02273e+06,1.03077e+06,-1.40357e+06
893764,-1.02431e+06,1.02784e+06,-1.40408e+06
893552,-1.02489e+06,1.02543e+06,-1.4036e+06
894054,-1.02603e+06,1.02259e+06,-1.40384e+06
893923,-1.02551e+06,1.02184e+06,-1.40365e+06
893821,-1.02572e+06,1.02232e+06,-1.40345e+06
893850,-1.02501e+06,1.02284e+06,-1.40417e+06
893603,-1.02527e+06,1.02345e+06,-1.40439e+06
893641,-1.02486e+06,1.02406e+06,-1.4042e+06
893969,-1.02526e+06,1.02431e+06,-1.40322e+06
894238,-1.02565e+06,1.02336e+06,-1.40352e+06
893716,-1.02561e+06,1.02106e+06,-1.40435e+06
893575,-1.02602e+06,1.02013e+06,-1.40403e+06
894289,-1.02643e+06,1.01786e+06,-1.40294e+06
894537,-1.02746e+06,1.01538e+06,-1.40337e+06
893912,-1.02835e+06,1.01329e+06,-1.4037e+06
893993,-1.02891e+06,1.01146e+06,-1.40362e+06
894401,-1.02844e+06,1.0093e+06,-1.40301e+06
894462,-1.02919e+06,1.0084e+06,-1.40332e+06
894379,-1.03001e+06,1.0063e+06,-1.40328e+06
894198,-1.03004e+06,1.00359e+06,-1.40387e+06
894863,-1.03031e+06,1.00164e+06,-1.40385e+06
894904,-1.0311e+06,1.00149e+06,-1.40395e+06
894803,-1.03111e+06,999955,-1.40347e+06
894518,-1.03169e+06,999887,-1.40396e+06
894966,-1.03085e+06,999730,-1.40357e+06
895641,-1.03092e+06,998712,-1.40285e+06
894820,-1.03178e+06,998192,-1.40276e+06
895140,-1.0316e+06,997053,-1.40275e+06
895142,-1.0315e+06,996788,-1.40259e+06
895823,-1.0314e+06,996744,-1.40236e+06
895019,-1.03227e+06,995967,-1.40262e+06
895252,-1.03273e+06,993900,-1.40332e+06
895362,-1.03249e+06,992599,-1.40259e+06
895641,-1.03261e+06,990969,-1.402e+06
895840,-1.03314e+06,990188,-1.40214e+06
895055,-1.03232e+06,992230,-1.40239e+06
895203,-1.03026e+06,1.00085e+06,-1.40289e+06
895424,-1.02782e+06,1.01296e+06,-1.40268e+06
893989,-1.02435e+06,1.02581e+06,-1.40297e+06
893614,-1.02054e+06,1.03959e+06,-1.40219e+06
892668,-1.01748e+06,1.05006e+06,-1.4028e+06
892973,-1.01618e+06,1.05548e+06,-1.40177e+06
892816,-1.0163e+06,1.05738e+06,-1.40235e+06
892479,-1.01712e+06,1.0527e+06,-1.40263e+06
892200,-1.01796e+06,1.04839e+06,-1.4034e+06
893355,-1.0204e+06,1.04306e+06,-1.40242e+06
893328,-1.02135e+06,1.03753e+06,-1.4031e+06
892820,-1.02302e+06,1.03332e+06,-1.40381e+06
893430,-1.02437e+06,1.02912e+06,-1.40371e+06
893810,-1.02454e+06,1.02652e+06,-1.40357e+06
894392,-1.02629e+06,1.02231e+06,-1.40288e+06
893419,-1.02768e+06,1.01903e+06,-1.40329e+06
893517,-1.02791e+06,1.01592e+06,-1.40369e+06
894701,-1.02853e+06,1.01472e+06,-1.40274e+06
894272,-1.02803e+06,1.01463e+06,-1.40308e+06
893989,-1.02829e+06,1.0134e+06,-1.40333e+06
894281,-1.02892e+06,1.01418e+06,-1.40308e+06
894310,-1.02728e+06,1.01618e+06,-1.40262e+06
894424,-1.02671e+06,1.01652e+06,-1.40332e+06
894498,-1.0266e+06,1.01777e+06,-1.40337e+06
893546,-1.02687e+06,1.01684e+06,-1.40387e+06
894308,-1.02736e+06,1.01576e+06,-1.40284e+06
894752,-1.02758e+06,1.01469e+06,-1.40282e+06
894426,-1.02776e+06,1.01232e+06,-1.40327e+06
893986,-1.02862e+06,1.01031e+06,-1.40324e+06
894644,-1.02942e+06,1.00873e+06,-1.40268e+06
894898,-1.02874e+06,1.0072e+06,-1.40347e+06
894765,-1.0293e+06,1.00537e+06,-1.40333e+06
894251,-1.03146e+06,1.00269e+06,-1.40318e+06
894640,-1.0314e+06,1.00079e+06,-1.40301e+06
895044,-1.03112e+06,1.00008e+06,-1.40267e+06
895201,-1.03086e+06,999004,-1.40327e+06
894869,-1.03194e+06,997563,-1.40305e+06
894993,-1.03162e+06,996579,-1.40351e+06
895478,-1.03134e+06,996042,-1.40253e+06
896062,-1.03241e+06,995020,-1.40282e+06
895599,-1.03273e+06,994808,-1.40255e+06
895271,-1.03227e+06,994041,-1.40224e+06
895751,-1.03227e+06,995039,-1.4022e+06
895539,-1.0324e+06,994822,-1.40241e+06
895512,-1.03274e+06,993608,-1.40234e+06
896149,-1.03255e+06,992977,-1.40201e+06
896536,-1.03212e+06,991784,-1.40172e+06
896335,-1.03253e+06,990690,-1.40191e+06
895870,-1.03328e+06,990967,-1.40269e+06
896166,-1.03107e+06,995574,-1.40246e+06
896271,-1.02857e+06,1.00612e+06,-1.40141e+06
895127,-1.02576e+06,1.01756e+06,-1.4024e+06
894590,-1.02222e+06,1.03207e+06,-1.40169e+06
893635,-1.01863e+06,1.04309e+06,-1.40233e+06
893447,-1.01602e+06,1.05203e+06,-1.40246e+06
893451,-1.01538e+06,1.05401e+06,-1.40205e+06
893057,-1.01618e+06,1.05239e+06,-1.40227e+06
893506,-1.0177e+06,1.04864e+06,-1.40219e+06
893942,-1.01876e+06,1.04285e+06,-1.40207e+06
894281,-1.02046e+06,1.0367e+06,-1.40305e+06
894365,-1.02228e+06,1.03212e+06,-1.40253e+06
894603,-1.02426e+06,1.0277e+06,-1.40288e+06
895224,-1.02485e+06,1.02473e+06,-1.40252e+06
894949,-1.02546e+06,1.02159e+06,-1.4025e+06
894996,-1.02686e+06,1.01805e+06,-1.40302e+06
894947,-1.02709e+06,1.01426e+06,-1.40349e+06
894968,-1.02809e+06,1.01342e+06,-1.40296e+06
895578,-1.02741e+06,1.01225e+06,-1.40248e+06
895965,-1.02761e+06,1.01142e+06,-1.40266e+06
895407,-1.02824e+06,1.01263e+06,-1.40292e+06
895281,-1.02712e+06,1.01393e+06,-1.40227e+06
895684,-1.02622e+06,1.01544e+06,-1.40227e+06
895452,-1.02647e+06,1.01645e+06,-1.40338e+06
895309,-1.02681e+06,1.01515e+06,-1.40261e+06
895021,-1.02754e+06,1.01479e+06,-1.40285e+06
896211,-1.02708e+06,1.01327e+06,-1.40213e+06
895880,-1.02773e+06,1.01096e+06,-1.40298e+06
896200,-1.02912e+06,1.00867e+06,-1.40283e+06
895936,-1.02937e+06,1.0061e+06,-1.40288e+06
896354,-1.02903e+06,1.0055e+06,-1.40314e+06
896119,-1.03012e+06,1.00337e+06,-1.40329e+06
896409,-1.03051e+06,1.00069e+06,-1.40271e+06
896475,-1.03119e+06,998458,-1.40251e+06
896333,-1.03098e+06,997426,-1.4019e+06
896644,-1.03095e+06,996754,-1.40275e+06
896843,-1.03129e+06,995754,-1.40248e+06
896623,-1.03173e+06,994839,-1.40234e+06
896638,-1.03196e+06,994480,-1.40304e+06
897228,-1.03217e+06,993836,-1.40171e+06
897171,-1.03346e+06,992247,-1.40189e+06
897026,-1.03253e+06,991290,-1.40285e+06
897580,-1.03263e+06,991104,-1.40205e+06
897412,-1.03227e+06,991528,-1.40152e+06
897935,-1.03248e+06,990366,-1.40151e+06
897393,-1.03246e+06,989356,-1.4018e+06
897531,-1.03256e+06,988918,-1.40176e+06
897660,-1.03166e+06,991401,-1.40185e+06
897233,-1.0302e+06,999307,-1.40208e+06
897222,-1.0282e+06,1.01035e+06,-1.40136e+06
896450,-1.02451e+06,1.02239e+06,-1.40136e+06
896371,-1.02146e+06,1.03671e+06,-1.4012e+06
895944,-1.01869e+06,1.04586e+06,-1.40106e+06
894727,-1.01696e+06,1.05093e+06,-1.40177e+06
894492,-1.01686e+06,1.05025e+06,-1.40194e+06
895273,-1.01788e+06,1.04707e+06,-1.402e+06
895343,-1.01941e+06,1.04281e+06,-1.40267e+06
895266,-1.02204e+06,1.03635e+06,-1.4024e+06
895757,-1.02345e+06,1.03083e+06,-1.40337e+06
895980,-1.02406e+06,1.02646e+06,-1.40343e+06
896544,-1.02528e+06,1.02202e+06,-1.40241e+06
896238,-1.02625e+06,1.01891e+06,-1.40337e+06
896634,-1.02855e+06,1.014e+06,-1.4036e+06
896736,-1.02912e+06,1.01132e+06,-1.40273e+06
896841,-1.02941e+06,1.00725e+06,-1.4023e+06
897092,-1.03022e+06,1.00524e+06,-1.40271e+06
897038,-1.03034e+06,1.0048e+06,-1.40276e+06
896892,-1.03008e+06,1.00563e+06,-1.40266e+06
897749,-1.02962e+06,1.00671e+06,-1.40236e+06
897311,-1.03018e+06,1.00766e+06,-1.40357e+06
897182,-1.02959e+06,1.00822e+06,-1.40276e+06
896583,-1.02913e+06,1.00858e+06,-1.403e+06
897284,-1.02871e+06,1.00847e+06,-1.40286e+06
897357,-1.02899e+06,1.0073e+06,-1.40344e+06
897135,-1.03004e+06,1.00541e+06,-1.40262e+06
896875,-1.03054e+06,1.00315e+06,-1.40273e+06
897825,-1.03074e+06,1.0015e+06,-1.40245e+06
897845,-1.03114e+06,999657,-1.40275e+06
897836,-1.03209e+06,997246,-1.40258e+06
897740,-1.03268e+06,995199,-1.40284e+06
897933,-1.03287e+06,993749,-1.40275e+06
898466,-1.03364e+06,991079,-1.40232e+06
898227,-1.03407e+06,988741,-1.40256e+06
897933,-1.03398e+06,987647,-1.40274e+06
898382,-1.03377e+06,987172,-1.40316e+06
898380,-1.0337e+06,987523,-1.40254e+06
898158,-1.03422e+06,986351,-1.40314e+06
898752,-1.03455e+06,985200,-1.40238e+06
898472,-1.03501e+06,984929,-1.40214e+06
898410,-1.03534e+06,983829,-1.40227e+06
898259,-1.03526e+06,982701,-1.40314e+06
898668,-1.03544e+06,982345,-1.40306e+06
898773,-1.03467e+06,982711,-1.40309e+06
898625,-1.03474e+06,982070,-1.4022e+06
898425,-1.03496e+06,981628,-1.40298e+06
898695,-1.03543e+06,982392,-1.40178e+06
898593,-1.03371e+06,986604,-1.40237e+06
898312,-1.03125e+06,996287,-1.40216e+06
897567,-1.0288e+06,1.00886e+06,-1.4022e+06
897047,-1.0243e+06,1.02449e+06,-1.40259e+06
896708,-1.02121e+06,1.03671e+06,-1.40223e+06
895747,-1.01843e+06,1.04569e+06,-1.40261e+06
896015,-1.01808e+06,1.04865e+06,-1.40219e+06
895707,-1.01835e+06,1.04727e+06,-1.4024e+06
895834,-1.01906e+06,1.04339e+06,-1.40291e+06
896045,-1.0211e+06,1.03709e+06,-1.40333e+06
896497,-1.02294e+06,1.03203e+06,-1.40426e+06
896192,-1.02408e+06,1.02723e+06,-1.40356e+06
896578,-1.02584e+06,1.02336e+06,-1.40275e+06
896759,-1.02617e+06,1.01913e+06,-1.40322e+06
896704,-1.02757e+06,1.0149e+06,-1.40427e+06
897279,-1.02874e+06,1.01141e+06,-1.40344e+06
897730,-1.02931e+06,1.00838e+06,-1.40332e+06
897060,-1.02988e+06,1.00721e+06,-1.40406e+06
897205,-1.03029e+06,1.00512e+06,-1.40351e+06
897593,-1.03035e+06,1.00453e+06,-1.40359e+06
897819,-1.03065e+06,1.00475e+06,-1.40327e+06
897614,-1.02988e+06,1.00518e+06,-1.40415e+06
897057,-1.02973e+06,1.00646e+06,-1.40367e+06
896797,-1.02954e+06,1.00803e+06,-1.40371e+06
897269,-1.02879e+06,1.00868e+06,-1.40354e+06
897309,-1.02873e+06,1.00865e+06,-1.4036e+06
897508,-1.02958e+06,1.00651e+06,-1.40341e+06
897026,-1.03018e+06,1.00439e+06,-1.40393e+06
897419,-1.03028e+06,1.00223e+06,-1.40444e+06
898043,-1.03128e+06,1.00088e+06,-1.40336e+06
897376,-1.03107e+06,999910,-1.40438e+06
897051,-1.03189e+06,997582,-1.40459e+06
897376,-1.03217e+06,996008,-1.40356e+06
898009,-1.03311e+06,992452,-1.40435e+06
898472,-1.03395e+06,990969,-1.40374e+06
897546,-1.03375e+06,988783,-1.40433e+06
897933,-1.0337e+06,988846,-1.40448e+06
898472,-1.03403e+06,988205,-1.40325e+06
897891,-1.03419e+06,986909,-1.40425e+06
898075,-1.03472e+06,986491,-1.40459e+06
898240,-1.03447e+06,985412,-1.40319e+06
898474,-1.03437e+06,984802,-1.40403e+06
898261,-1.03441e+06,984396,-1.40418e+06
898028,-1.03456e+06,983871,-1.40429e+06
898504,-1.03464e+06,983471,-1.40347e+06
898698,-1.03494e+06,981907,-1.40299e+06
898924,-1.03568e+06,980684,-1.40342e+06
898242,-1.03563e+06,980735,-1.40424e+06
898991,-1.03458e+06,984254,-1.40282e+06
898547,-1.03248e+06,992708,-1.4029e+06
897926,-1.02954e+06,1.00619e+06,-1.40296e+06
897036,-1.0261e+06,1.01929e+06,-1.40412e+06
896369,-1.02237e+06,1.03284e+06,-1.40394e+06
896000,-1.01998e+06,1.04078e+06,-1.40315e+06
895605,-1.01935e+06,1.04414e+06,-1.40341e+06
895044,-1.0202e+06,1.04411e+06,-1.40399e+06
896060,-1.02042e+06,1.0402e+06,-1.40383e+06
896098,-1.0218e+06,1.03398e+06,-1.40466e+06
896164,-1.02399e+06,1.02809e+06,-1.40431e+06
896117,-1.02578e+06,1.0217e+06,-1.40547e+06
896384,-1.02762e+06,1.01883e+06,-1.40465e+06
896687,-1.02727e+06,1.0159e+06,-1.4054e+06
896631,-1.02897e+06,1.01042e+06,-1.40553e+06
896488,-1.03143e+06,1.0061e+06,-1.40513e+06
897192,-1.03064e+06,1.00296e+06,-1.40565e+06
897361,-1.03135e+06,1.00058e+06,-1.40535e+06
897508,-1.03176e+06,998884,-1.40554e+06
897324,-1.03199e+06,998467,-1.40516e+06
896826,-1.03221e+06,999330,-1.40497e+06
897313,-1.03124e+06,999923,-1.40594e+06
897239,-1.03088e+06,1.00074e+06,-1.40551e+06
897154,-1.0314e+06,1.00124e+06,-1.4049e+06
896657,-1.03133e+06,1.0012e+06,-1.40492e+06
897425,-1.03087e+06,1.00129e+06,-1.40471e+06
897743,-1.03125e+06,1.00017e+06,-1.40568e+06
896759,-1.03188e+06,998878,-1.40598e+06
897380,-1.03251e+06,996391,-1.40541e+06
897713,-1.03327e+06,995028,-1.40478e+06
897491,-1.03372e+06,992542,-1.40577e+06
897715,-1.03373e+06,990609,-1.40615e+06
897591,-1.03438e+06,989443,-1.40518e+06
897715,-1.03387e+06,987668,-1.40563e+06
897911,-1.0345e+06,986169,-1.40503e+06
897689,-1.03539e+06,983479,-1.40493e+06
897365,-1.03652e+06,982752,-1.40519e+06
898255,-1.03557e+06,981920,-1.40471e+06
898474,-1.03567e+06,981323,-1.40446e+06
897753,-1.03616e+06,980385,-1.40574e+06
898162,-1.03685e+06,979450,-1.4051e+06
897726,-1.03599e+06,979308,-1.40519e+06
898401,-1.03592e+06,979323,-1.40454e+06
898511,-1.03719e+06,977787,-1.40561e+06
898212,-1.03701e+06,975869,-1.40473e+06
898500,-1.03682e+06,975607,-1.40513e+06
898282,-1.03767e+06,974801,-1.40466e+06
898354,-1.03731e+06,973859,-1.40478e+06
898374,-1.03662e+06,977738,-1.40465e+06
899161,-1.03419e+06,986811,-1.40408e+06
898212,-1.03223e+06,997895,-1.4041e+06
897131,-1.02815e+06,1.01273e+06,-1.4044e+06
897043,-1.0247e+06,1.02509e+06,-1.40452e+06
896314,-1.02263e+06,1.03452e+06,-1.40446e+06
896177,-1.02159e+06,1.03783e+06,-1.40511e+06
896022,-1.02168e+06,1.03622e+06,-1.40548e+06
895580,-1.02301e+06,1.032e+06,-1.40544e+06
896316,-1.02395e+06,1.02641e+06,-1.40539e+06
897099,-1.02566e+06,1.02123e+06,-1.40543e+06
896192,-1.02714e+06,1.01596e+06,-1.40676e+06
896382,-1.02934e+06,1.01058e+06,-1.40694e+06
897203,-1.02989e+06,1.00614e+06,-1.4059e+06
897299,-1.03102e+06,1.00114e+06,-1.40653e+06
897103,-1.03243e+06,996440,-1.407e+06
897504,-1.03414e+06,992303,-1.40635e+06
897380,-1.03411e+06,991343,-1.40635e+06
897903,-1.03435e+06,990277,-1.40613e+06
897341,-1.03369e+06,990539,-1.40642e+06
897305,-1.03349e+06,992034,-1.40708e+06
898009,-1.03298e+06,993107,-1.40583e+06
897355,-1.03336e+06,993644,-1.40635e+06
897028,-1.03327e+06,995621,-1.40656e+06
897487,-1.03231e+06,996118,-1.40566e+06
897685,-1.03221e+06,995517,-1.40592e+06
897453,-1.03283e+06,994743,-1.40703e+06
897847,-1.03334e+06,994005,-1.40641e+06
897783,-1.03254e+06,993005,-1.4067e+06
897823,-1.03343e+06,991669,-1.4062e+06
897410,-1.03452e+06,988630,-1.40668e+06
897692,-1.03423e+06,986419,-1.40728e+06
898139,-1.03427e+06,984921,-1.4066e+06
898832,-1.0356e+06,983050,-1.40591e+06
898380,-1.03538e+06,981509,-1.4072e+06
898265,-1.03566e+06,980322,-1.40627e+06
899054,-1.03575e+06,979274,-1.40572e+06
898636,-1.03587e+06,978589,-1.4065e+06
898359,-1.03677e+06,977326,-1.40645e+06
898781,-1.03668e+06,975647,-1.40622e+06
898949,-1.03634e+06,975920,-1.4055e+06
899195,-1.03638e+06,975624,-1.40628e+06
899052,-1.03675e+06,973660,-1.40584e+06
898945,-1.0368e+06,973161,-1.40637e+06
899468,-1.03663e+06,972862,-1.40521e+06
899478,-1.03724e+06,972310,-1.40552e+06
899410,-1.03744e+06,973865,-1.40579e+06
899861,-1.03562e+06,980310,-1.40515e+06
898762,-1.0335e+06,990031,-1.40526e+06
898069,-1.02997e+06,1.00425e+06,-1.40551e+06
897817,-1.02668e+06,1.01559e+06,-1.40547e+06
897382,-1.02357e+06,1.02861e+06,-1.40545e+06
896915,-1.02159e+06,1.03499e+06,-1.40655e+06
896797,-1.0224e+06,1.03599e+06,-1.40599e+06
896392,-1.02343e+06,1.03266e+06,-1.40596e+06
897055,-1.02404e+06,1.02722e+06,-1.40617e+06
897572,-1.02589e+06,1.02092e+06,-1.40678e+06
897015,-1.02744e+06,1.01615e+06,-1.40775e+06
897374,-1.02912e+06,1.01036e+06,-1.40685e+06
898160,-1.03042e+06,1.0073e+06,-1.40688e+06
898135,-1.03075e+06,1.00285e+06,-1.40744e+06
897760,-1.03302e+06,998217,-1.40779e+06
897842,-1.03453e+06,992237,-1.40767e+06
898047,-1.03462e+06,988266,-1.40777e+06
898788,-1.03563e+06,986749,-1.40699e+06
898764,-1.03522e+06,985996,-1.40736e+06
898193,-1.03511e+06,986704,-1.40813e+06
898391,-1.03484e+06,987807,-1.40671e+06
898506,-1.03399e+06,989475,-1.40755e+06
899086,-1.03409e+06,991559,-1.40729e+06
898156,-1.03357e+06,991840,-1.40828e+06
898708,-1.03397e+06,991335,-1.40729e+06
898602,-1.03376e+06,991437,-1.40759e+06
899093,-1.03458e+06,988999,-1.40682e+06
898508,-1.03474e+06,987058,-1.40758e+06
899027,-1.03502e+06,986425,-1.40737e+06
899250,-1.03529e+06,985013,-1.40732e+06
898960,-1.03484e+06,984309,-1.40772e+06
899076,-1.03588e+06,981351,-1.40721e+06
899419,-1.03637e+06,978687,-1.40685e+06
899726,-1.03635e+06,976674,-1.40669e+06
899497,-1.03748e+06,975118,-1.40758e+06
899583,-1.03764e+06,973753,-1.40812e+06
899308,-1.03763e+06,973476,-1.40718e+06
899611,-1.0373e+06,972877,-1.40742e+06
900183,-1.03738e+06,972395,-1.40651e+06
899760,-1.03772e+06,971112,-1.40692e+06
900048,-1.03868e+06,969761,-1.40681e+06
900304,-1.03848e+06,968923,-1.40718e+06
900009,-1.03886e+06,967223,-1.40675e+06
900204,-1.03897e+06,966314,-1.40684e+06
900016,-1.03875e+06,966543,-1.40748e+06
900189,-1.03714e+06,972128,-1.40752e+06
899702,-1.03481e+06,982804,-1.40631e+06
899148,-1.03205e+06,994493,-1.40775e+06
898504,-1.02823e+06,1.00966e+06,-1.40653e+06
898335,-1.02452e+06,1.02247e+06,-1.40592e+06
897692,-1.02211e+06,1.03223e+06,-1.40612e+06
897182,-1.0218e+06,1.03502e+06,-1.40699e+06
896782,-1.02238e+06,1.03377e+06,-1.40799e+06
897254,-1.02386e+06,1.02767e+06,-1.40775e+06
897574,-1.0255e+06,1.02183e+06,-1.40734e+06
897749,-1.02813e+06,1.01376e+06,-1.40748e+06
897866,-1.02975e+06,1.00795e+06,-1.40807e+06
898005,-1.03128e+06,1.00224e+06,-1.40801e+06
898640,-1.03233e+06,998731,-1.40777e+06
898562,-1.03362e+06,993380,-1.40858e+06
898126,-1.03561e+06,989185,-1.40858e+06
899139,-1.03612e+06,985009,-1.40829e+06
898890,-1.03609e+06,983496,-1.40798e+06
899283,-1.03621e+06,982616,-1.40803e+06
898922,-1.03679e+06,981912,-1.40827e+06
899091,-1.03649e+06,983902,-1.40849e+06
899327,-1.03537e+06,985365,-1.40777e+06
898587,-1.03505e+06,987133,-1.40875e+06
898678,-1.03521e+06,986806,-1.4087e+06
898875,-1.03583e+06,986711,-1.40833e+06
898771,-1.03582e+06,985830,-1.40829e+06
899122,-1.03532e+06,984098,-1.40778e+06
898843,-1.03654e+06,981575,-1.40814e+06
899276,-1.03769e+06,979884,-1.40839e+06
898962,-1.03729e+06,978284,-1.40907e+06
899137,-1.03745e+06,977615,-1.40812e+06
899025,-1.03795e+06,974155,-1.40877e+06
899110,-1.03917e+06,972574,-1.40838e+06
899449,-1.03889e+06,971124,-1.40794e+06
899794,-1.03999e+06,968196,-1.40791e+06
899252,-1.04019e+06,966323,-1.40852e+06
899846,-1.04044e+06,964538,-1.40879e+06
899783,-1.0408e+06,964113,-1.40812e+06
899728,-1.04079e+06,963201,-1.40834e+06
899607,-1.04182e+06,962137,-1.40841e+06
899615,-1.04111e+06,960820,-1.40841e+06
900174,-1.04096e+06,959726,-1.40732e+06
900274,-1.04165e+06,957240,-1.40772e+06
900083,-1.04317e+06,955337,-1.40787e+06
900373,-1.04274e+06,954770,-1.40759e+06
900231,-1.04255e+06,958355,-1.40705e+06
900077,-1.04026e+06,965449,-1.40718e+06
899323,-1.03787e+06,976407,-1.40838e+06
898896,-1.03405e+06,992126,-1.40817e+06
898412,-1.03002e+06,1.0058e+06,-1.40703e+06
898141,-1.02782e+06,1.01703e+06,-1.40742e+06
897163,-1.02647e+06,1.02238e+06,-1.40789e+06
897060,-1.02638e+06,1.02235e+06,-1.40896e+06
897702,-1.02758e+06,1.01978e+06,-1.40871e+06
897368,-1.02837e+06,1.01501e+06,-1.40915e+06
897245,-1.0302e+06,1.00842e+06,-1.40949e+06
897599,-1.03165e+06,1.0025e+06,-1.4098e+06
898371,-1.03355e+06,996690,-1.40869e+06
898257,-1.03387e+06,993208,-1.40883e+06
897808,-1.03531e+06,988306,-1.41004e+06
898107,-1.03632e+06,984057,-1.41009e+06
898839,-1.03712e+06,980927,-1.40925e+06
898521,-1.03816e+06,979399,-1.40901e+06
898647,-1.03817e+06,977429,-1.40921e+06
898589,-1.0382e+06,976227,-1.41001e+06
898583,-1.03824e+06,977021,-1.40923e+06
899027,-1.03834e+06,977783,-1.40874e+06
898681,-1.0378e+06,978149,-1.41013e+06
898822,-1.03755e+06,979911,-1.40924e+06
899057,-1.03684e+06,981253,-1.40887e+06
898712,-1.03743e+06,981213,-1.40896e+06
898149,-1.0371e+06,979947,-1.40964e+06
898318,-1.03725e+06,979122,-1.41017e+06
899001,-1.03808e+06,977344,-1.40985e+06
898621,-1.0387e+06,975692,-1.40983e+06
898293,-1.03898e+06,974085,-1.40952e+06
898365,-1.03932e+06,972069,-1.40942e+06
898890,-1.03903e+06,969309,-1.40987e+06
899161,-1.03996e+06,967575,-1.40889e+06
899237,-1.04028e+06,965834,-1.40911e+06
899521,-1.04053e+06,964538,-1.40896e+06
899713,-1.04045e+06,964018,-1.40862e+06
899252,-1.04112e+06,963663,-1.4091e+06
898979,-1.04078e+06,962017,-1.40985e+06
899270,-1.04068e+06,962535,-1.4091e+06
899831,-1.04061e+06,961430,-1.40916e+06
899412,-1.04172e+06,960573,-1.40879e+06
899332,-1.04126e+06,959291,-1.40952e+06
900185,-1.04147e+06,959765,-1.40821e+06
899939,-1.04199e+06,959612,-1.40833e+06
899768,-1.04168e+06,960408,-1.40863e+06
899549,-1.03971e+06,965523,-1.40789e+06
899628,-1.0366e+06,977145,-1.40858e+06
898661,-1.03424e+06,988603,-1.40805e+06
897704,-1.03125e+06,1.00402e+06,-1.40874e+06
897531,-1.02718e+06,1.01707e+06,-1.40822e+06
897616,-1.02501e+06,1.02574e+06,-1.40843e+06
897318,-1.02378e+06,1.02823e+06,-1.40961e+06
896386,-1.02448e+06,1.0261e+06,-1.40992e+06
897090,-1.02617e+06,1.02046e+06,-1.40922e+06
897372,-1.02715e+06,1.01549e+06,-1.40992e+06
897429,-1.02862e+06,1.00977e+06,-1.40999e+06
897359,-1.03072e+06,1.00571e+06,-1.41088e+06
897326,-1.03189e+06,1.0013e+06,-1.41026e+06
897783,-1.03217e+06,997309,-1.40969e+06
897933,-1.03324e+06,992861,-1.41049e+06
897802,-1.03438e+06,988666,-1.41091e+06
897943,-1.03497e+06,985909,-1.41006e+06
898966,-1.03523e+06,986133,-1.40958e+06
898384,-1.03473e+06,986038,-1.41016e+06
897945,-1.03547e+06,985926,-1.41002e+06
897994,-1.03498e+06,986849,-1.41017e+06
898457,-1.03408e+06,988937,-1.40974e+06
898405,-1.03386e+06,989280,-1.40979e+06
898397,-1.03416e+06,990338,-1.40981e+06
897937,-1.03325e+06,990725,-1.40947e+06
899059,-1.03326e+06,991232,-1.40946e+06
898472,-1.03294e+06,990458,-1.41009e+06
898164,-1.03361e+06,987826,-1.41074e+06
898781,-1.03496e+06,985727,-1.40983e+06
899233,-1.03485e+06,984013,-1.40951e+06
899001,-1.03464e+06,982083,-1.41032e+06
898621,-1.03528e+06,980622,-1.41004e+06
898600,-1.03679e+06,979655,-1.40991e+06
899122,-1.03538e+06,978009,-1.41003e+06
899408,-1.03586e+06,976456,-1.40934e+06
899220,-1.03684e+06,974811,-1.40973e+06
899059,-1.03661e+06,973844,-1.41036e+06
899381,-1.03741e+06,973412,-1.40915e+06
899734,-1.03728e+06,973018,-1.40918e+06
899466,-1.03717e+06,970970,-1.40973e+06
899391,-1.03813e+06,970000,-1.40964e+06
900119,-1.03769e+06,969132,-1.40905e+06
900519,-1.03792e+06,969258,-1.4087e+06
900302,-1.03721e+06,969853,-1.40869e+06
900083,-1.03633e+06,973963,-1.40959e+06
899519,-1.0343e+06,985497,-1.40876e+06
899237,-1.03076e+06,996873,-1.40897e+06
898843,-1.02772e+06,1.0128e+06,-1.40834e+06
897937,-1.02481e+06,1.02408e+06,-1.40928e+06
897013,-1.02164e+06,1.03205e+06,-1.41057e+06
897497,-1.02072e+06,1.03529e+06,-1.40882e+06
897559,-1.02188e+06,1.03364e+06,-1.40924e+06
896987,-1.02277e+06,1.02825e+06,-1.41069e+06
897271,-1.02458e+06,1.0229e+06,-1.41084e+06
897525,-1.02669e+06,1.01718e+06,-1.40984e+06
897973,-1.02767e+06,1.01197e+06,-1.41005e+06
898312,-1.02889e+06,1.00826e+06,-1.41024e+06
897928,-1.03068e+06,1.00553e+06,-1.41077e+06
898585,-1.03024e+06,1.001e+06,-1.41039e+06
899084,-1.03135e+06,997409,-1.40986e+06
899135,-1.03299e+06,994007,-1.41021e+06
898954,-1.03267e+06,993132,-1.41062e+06
899031,-1.03254e+06,992347,-1.41016e+06
898928,-1.03254e+06,992074,-1.41025e+06
898877,-1.03228e+06,993088,-1.41e+06
898747,-1.03234e+06,992911,-1.41024e+06
898873,-1.03224e+06,994860,-1.4097e+06
899105,-1.03138e+06,995837,-1.41057e+06
898720,-1.03124e+06,995982,-1.41085e+06
899453,-1.03184e+06,994429,-1.41023e+06
899620,-1.03236e+06,993828,-1.40971e+06
899620,-1.03241e+06,992245,-1.40978e+06
898869,-1.03303e+06,989398,-1.41118e+06
898981,-1.0338e+06,988910,-1.41044e+06
899804,-1.03316e+06,986639,-1.40966e+06
899713,-1.03375e+06,984127,-1.41083e+06
899592,-1.03523e+06,982494,-1.41004e+06
899547,-1.03561e+06,980322,-1.4102e+06
900521,-1.03529e+06,978736,-1.40939e+06
900020,-1.03573e+06,976796,-1.4097e+06
899916,-1.03717e+06,974007,-1.40982e+06
900083,-1.0381e+06,972250,-1.40975e+06
900242,-1.0375e+06,971438,-1.40927e+06
900839,-1.03742e+06,970651,-1.40914e+06
900033,-1.03835e+06,969398,-1.40966e+06
900407,-1.03798e+06,968513,-1.41025e+06
901215,-1.03795e+06,967531,-1.40876e+06
900741,-1.03825e+06,967997,-1.40973e+06
900430,-1.03773e+06,970200,-1.40933e+06
900257,-1.03575e+06,977907,-1.40908e+06
900178,-1.03261e+06,989149,-1.40856e+06
898830,-1.02997e+06,1.00185e+06,-1.40976e+06
898647,-1.02661e+06,1.01577e+06,-1.409e+06
898549,-1.02365e+06,1.02588e+06,-1.40867e+06
897774,-1.02246e+06,1.03217e+06,-1.40911e+06
896996,-1.02233e+06,1.03203e+06,-1.41065e+06
897339,-1.0239e+06,1.02884e+06,-1.41067e+06
897956,-1.02474e+06,1.02521e+06,-1.40983e+06
897943,-1.02555e+06,1.01878e+06,-1.41043e+06
898468,-1.02793e+06,1.01312e+06,-1.41039e+06
898308,-1.02955e+06,1.00794e+06,-1.41054e+06
898801,-1.0303e+06,1.00485e+06,-1.41015e+06
899268,-1.031e+06,1.00007e+06,-1.40985e+06
898623,-1.03259e+06,996003,-1.41066e+06
899033,-1.03339e+06,991695,-1.41054e+06
899176,-1.03474e+06,988474,-1.41099e+06
899842,-1.03463e+06,987284,-1.41027e+06
899016,-1.03451e+06,985145,-1.41084e+06
898758,-1.03586e+06,984561,-1.41074e+06
898805,-1.03504e+06,984919,-1.41146e+06
899327,-1.03477e+06,986751,-1.41016e+06
898979,-1.03494e+06,987212,-1.41003e+06
898788,-1.03468e+06,986977,-1.41048e+06
899148,-1.0354e+06,985834,-1.40986e+06
899302,-1.03452e+06,984328,-1.41092e+06
898764,-1.03553e+06,982027,-1.41119e+06
899315,-1.03673e+06,979672,-1.41098e+06
899794,-1.03674e+06,977352,-1.41017e+06
899734,-1.03747e+06,974566,-1.41042e+06
899463,-1.03805e+06,974068,-1.41078e+06
899276,-1.03773e+06,972293,-1.41006e+06
899946,-1.03771e+06,970634,-1.41074e+06
899990,-1.03883e+06,969522,-1.41033e+06
899545,-1.03902e+06,966974,-1.41091e+06
899556,-1.03942e+06,964894,-1.41068e+06
900733,-1.04035e+06,963775,-1.4099e+06
900485,-1.04035e+06,961439,-1.40977e+06
900325,-1.04126e+06,959312,-1.40991e+06
900255,-1.04187e+06,958005,-1.40995e+06
900873,-1.04149e+06,956819,-1.41031e+06
900803,-1.04181e+06,955970,-1.41027e+06
900746,-1.04224e+06,955194,-1.41e+06
900058,-1.04178e+06,956728,-1.40975e+06
900261,-1.04096e+06,958332,-1.40909e+06
900568,-1.03891e+06,966229,-1.40881e+06
900342,-1.03624e+06,978553,-1.40916e+06
899395,-1.0339e+06,991599,-1.40928e+06
898813,-1.03013e+06,1.00551e+06,-1.40905e+06
898156,-1.02612e+06,1.01936e+06,-1.40957e+06
898199,-1.0248e+06,1.02616e+06,-1.4093e+06
897406,-1.02476e+06,1.02836e+06,-1.40973e+06
896763,-1.02424e+06,1.02613e+06,-1.41081e+06
898371,-1.02506e+06,1.02305e+06,-1.40937e+06
897578,-1.02683e+06,1.01764e+06,-1.41003e+06
897382,-1.02876e+06,1.01215e+06,-1.41119e+06
897544,-1.02934e+06,1.00845e+06,-1.41047e+06
898221,-1.02942e+06,1.00471e+06,-1.41005e+06
898883,-1.03053e+06,1.00147e+06,-1.40976e+06
898170,-1.03198e+06,996803,-1.41116e+06
898158,-1.03354e+06,992645,-1.41055e+06
898971,-1.03366e+06,990699,-1.4109e+06
898847,-1.03344e+06,989178,-1.41071e+06
898811,-1.03379e+06,986770,-1.41113e+06
898549,-1.03403e+06,987344,-1.41028e+06
899489,-1.03399e+06,988461,-1.40994e+06
898540,-1.03432e+06,988922,-1.41019e+06
898244,-1.03362e+06,990770,-1.4105e+06
898427,-1.03251e+06,991377,-1.41067e+06
899135,-1.03312e+06,991309,-1.4103e+06
898695,-1.03287e+06,990782,-1.4108e+06
898433,-1.03371e+06,989439,-1.41005e+06
898951,-1.0337e+06,988436,-1.41004e+06
899455,-1.03312e+06,987193,-1.40952e+06
899332,-1.03314e+06,986137,-1.4099e+06
899178,-1.03455e+06,984849,-1.40991e+06
899463,-1.03522e+06,982339,-1.40962e+06
899905,-1.03458e+06,980868,-1.40933e+06
899724,-1.03473e+06,979566,-1.40988e+06
899654,-1.03603e+06,977778,-1.40957e+06
899453,-1.03572e+06,976640,-1.40949e+06
899787,-1.03517e+06,976335,-1.40969e+06
900121,-1.03653e+06,975089,-1.41012e+06
900108,-1.03632e+06,973739,-1.40941e+06
899688,-1.03644e+06,973762,-1.40878e+06
900278,-1.03608e+06,973272,-1.40918e+06
900422,-1.03612e+06,972479,-1.40861e+06
899992,-1.03705e+06,970770,-1.40864e+06
900304,-1.03731e+06,970341,-1.40889e+06
900989,-1.03695e+06,969341,-1.4082e+06
900314,-1.0374e+06,970540,-1.40838e+06
900524,-1.03594e+06,974816,-1.40838e+06
900609,-1.03358e+06,984544,-1.40801e+06
899385,-1.03028e+06,998727,-1.40784e+06
898506,-1.0271e+06,1.01077e+06,-1.40837e+06
897845,-1.02326e+06,1.0251e+06,-1.40835e+06
897290,-1.02053e+06,1.03282e+06,-1.40916e+06
897330,-1.01948e+06,1.03684e+06,-1.40839e+06
897649,-1.02059e+06,1.03414e+06,-1.40866e+06
897391,-1.02266e+06,1.0296e+06,-1.40908e+06
897616,-1.02378e+06,1.02342e+06,-1.40878e+06
897992,-1.02503e+06,1.01845e+06,-1.40858e+06
898453,-1.02697e+06,1.01345e+06,-1.40931e+06
898259,-1.02799e+06,1.0093e+06,-1.40929e+06
898835,-1.02941e+06,1.00543e+06,-1.40919e+06
899256,-1.0294e+06,1.00136e+06,-1.40875e+06
898651,-1.03164e+06,996992,-1.40891e+06
898625,-1.0321e+06,994448,-1.41006e+06
898784,-1.03262e+06,992702,-1.40943e+06
899148,-1.03188e+06,991872,-1.40949e+06
899751,-1.03215e+06,992017,-1.4095e+06
898647,-1.03213e+06,993510,-1.40934e+06
899003,-1.03168e+06,994457,-1.40841e+06
899291,-1.03107e+06,995182,-1.40856e+06
899067,-1.03097e+06,995803,-1.40891e+06
898815,-1.03099e+06,996306,-1.40984e+06
899142,-1.03135e+06,995940,-1.40874e+06
899863,-1.03153e+06,994660,-1.40858e+06
898905,-1.03192e+06,992264,-1.40953e+06
899101,-1.03289e+06,990746,-1.40902e+06
900350,-1.03329e+06,988381,-1.4083e+06
899790,-1.03286e+06,987293,-1.40945e+06
900065,-1.0339e+06,986007,-1.4083e+06
899751,-1.03424e+06,984978,-1.40819e+06
900134,-1.03351e+06,983888,-1.40882e+06
900396,-1.03388e+06,981869,-1.40854e+06
900265,-1.03533e+06,980178,-1.40803e+06
900274,-1.03484e+06,978988,-1.40834e+06
900750,-1.03464e+06,979295,-1.40771e+06
900650,-1.03466e+06,979455,-1.40761e+06
900331,-1.03513e+06,977693,-1.4086e+06
900479,-1.03579e+06,977755,-1.40751e+06
900951,-1.03491e+06,976282,-1.40812e+06
900805,-1.03532e+06,975396,-1.40809e+06
900934,-1.03579e+06,974159,-1.40742e+06
901144,-1.03554e+06,975501,-1.40712e+06
901144,-1.03448e+06,980064,-1.40684e+06
900532,-1.03244e+06,989498,-1.40709e+06
900071,-1.02888e+06,1.00141e+06,-1.40777e+06
899455,-1.02557e+06,1.01664e+06,-1.40687e+06
899429,-1.02167e+06,1.02913e+06,-1.40673e+06
898141,-1.01916e+06,1.03826e+06,-1.40764e+06
897834,-1.0187e+06,1.042e+06,-1.40766e+06
897926,-1.01836e+06,1.04212e+06,-1.40767e+06
898357,-1.01876e+06,1.03873e+06,-1.40719e+06
898820,-1.02112e+06,1.03258e+06,-1.4079e+06
899020,-1.02309e+06,1.02676e+06,-1.40783e+06
899395,-1.02438e+06,1.02142e+06,-1.40763e+06
899440,-1.02513e+06,1.01745e+06,-1.40822e+06
899741,-1.02632e+06,1.01451e+06,-1.40776e+06
899308,-1.02742e+06,1.00994e+06,-1.40784e+06
899808,-1.02874e+06,1.00676e+06,-1.40854e+06
900067,-1.02904e+06,1.00291e+06,-1.40849e+06
900325,-1.02966e+06,1.00016e+06,-1.40833e+06
900360,-1.03044e+06,998418,-1.40774e+06
899933,-1.03022e+06,998002,-1.40835e+06
900845,-1.03026e+06,999785,-1.40745e+06
900346,-1.02982e+06,1.00028e+06,-1.4073e+06
900063,-1.02952e+06,1.00118e+06,-1.40751e+06
899711,-1.02933e+06,1.0018e+06,-1.4073e+06
900661,-1.02898e+06,1.00225e+06,-1.40714e+06
900720,-1.02907e+06,1.00175e+06,-1.40689e+06
900238,-1.02976e+06,1.00065e+06,-1.40742e+06
900115,-1.0297e+06,999174,-1.40825e+06
900445,-1.02974e+06,998063,-1.40734e+06
901298,-1.03027e+06,996306,-1.40668e+06
901404,-1.03115e+06,993009,-1.40795e+06
901029,-1.0323e+06,990639,-1.40765e+06
901340,-1.03199e+06,989096,-1.4067e+06
901609,-1.03264e+06,986815,-1.40659e+06
901368,-1.03399e+06,985037,-1.40685e+06
901558,-1.03374e+06,983780,-1.40672e+06
901577,-1.03435e+06,983147,-1.4062e+06
901937,-1.03364e+06,982449,-1.40601e+06
901770,-1.03485e+06,981505,-1.40676e+06
902013,-1.03481e+06,980144,-1.40637e+06
901533,-1.03445e+06,979628,-1.40673e+06
902752,-1.03496e+06,977951,-1.4057e+06
902799,-1.03586e+06,976269,-1.40609e+06
901842,-1.03567e+06,975611,-1.407e+06
902128,-1.03557e+06,974854,-1.40674e+06
902538,-1.03489e+06,977211,-1.40604e+06
902648,-1.03339e+06,984000,-1.40522e+06
901258,-1.03174e+06,993745,-1.40573e+06
900784,-1.02757e+06,1.00589e+06,-1.40504e+06
900669,-1.02378e+06,1.02199e+06,-1.40529e+06
900259,-1.02043e+06,1.03206e+06,-1.40548e+06
898977,-1.01921e+06,1.03969e+06,-1.40668e+06
899410,-1.0192e+06,1.04065e+06,-1.40561e+06
899939,-1.01996e+06,1.0384e+06,-1.40585e+06
899924,-1.0219e+06,1.03246e+06,-1.40625e+06
899685,-1.02352e+06,1.02664e+06,-1.40648e+06
899609,-1.02525e+06,1.022e+06,-1.40681e+06
900295,-1.026e+06,1.01814e+06,-1.40686e+06
900707,-1.02715e+06,1.01415e+06,-1.40639e+06
900368,-1.02825e+06,1.00951e+06,-1.4068e+06
900485,-1.0295e+06,1.00497e+06,-1.40765e+06
901296,-1.03067e+06,1.00155e+06,-1.40613e+06
901202,-1.03102e+06,997565,-1.40637e+06
901159,-1.03184e+06,995075,-1.4076e+06
900754,-1.03215e+06,993617,-1.40753e+06
901878,-1.03234e+06,994344,-1.40615e+06
901118,-1.0315e+06,994463,-1.40671e+06
900801,-1.03206e+06,995633,-1.40677e+06
901087,-1.03132e+06,997324,-1.40607e+06
901402,-1.03085e+06,996890,-1.40671e+06
900799,-1.03189e+06,997300,-1.40657e+06
900884,-1.0317e+06,996223,-1.4065e+06
901277,-1.03152e+06,994863,-1.40693e+06
901219,-1.03223e+06,993166,-1.40686e+06
901192,-1.03241e+06,991149,-1.40714e+06
901440,-1.03321e+06,989123,-1.40655e+06
902077,-1.0333e+06,987164,-1.40586e+06
901592,-1.03395e+06,985354,-1.40609e+06
901772,-1.03474e+06,982838,-1.40683e+06
902068,-1.03496e+06,980798,-1.40579e+06
902204,-1.03501e+06,980468,-1.40645e+06
902288,-1.03549e+06,978426,-1.40593e+06
902294,-1.03647e+06,977582,-1.40604e+06
902202,-1.03626e+06,977200,-1.4065e+06
902432,-1.0356e+06,976742,-1.40613e+06
902739,-1.03697e+06,974865,-1.40558e+06
902074,-1.03679e+06,973882,-1.4067e+06
902458,-1.03741e+06,973180,-1.40615e+06
902642,-1.03645e+06,973560,-1.40579e+06
903149,-1.03707e+06,971603,-1.40502e+06
903094,-1.03803e+06,970534,-1.40522e+06
903271,-1.03759e+06,970221,-1.40505e+06
903569,-1.03722e+06,970947,-1.40467e+06
902693,-1.03632e+06,974993,-1.405e+06
902608,-1.03424e+06,984959,-1.40488e+06
902074,-1.03092e+06,998599,-1.40442e+06
901793,-1.02727e+06,1.01193e+06,-1.40443e+06
900592,-1.02358e+06,1.02524e+06,-1.40506e+06
899990,-1.02233e+06,1.03326e+06,-1.4054e+06
900149,-1.0209e+06,1.0361e+06,-1.40515e+06
900052,-1.02142e+06,1.03501e+06,-1.40505e+06
900402,-1.02357e+06,1.02993e+06,-1.40536e+06
899990,-1.02471e+06,1.02379e+06,-1.4064e+06
900020,-1.02685e+06,1.01841e+06,-1.40607e+06
901033,-1.02822e+06,1.01385e+06,-1.40614e+06
900875,-1.02859e+06,1.00901e+06,-1.40572e+06
901207,-1.02993e+06,1.00465e+06,-1.40641e+06
901177,-1.03154e+06,1.00097e+06,-1.40634e+06
901245,-1.03256e+06,996524,-1.40577e+06
901721,-1.03301e+06,993242,-1.4059e+06
901408,-1.03415e+06,990133,-1.40602e+06
901183,-1.03484e+06,988686,-1.40625e+06
901569,-1.03429e+06,988093,-1.40703e+06
901531,-1.03485e+06,988035,-1.40612e+06
901323,-1.03445e+06,987344,-1.40696e+06
901155,-1.03459e+06,987451,-1.40603e+06
902142,-1.03428e+06,988867,-1.40573e+06
901899,-1.03426e+06,988810,-1.40596e+06
901217,-1.03523e+06,987915,-1.40603e+06
901249,-1.03515e+06,985636,-1.40693e+06
901823,-1.03517e+06,984584,-1.4067e+06
902196,-1.03643e+06,981639,-1.40571e+06
901767,-1.03666e+06,979399,-1.40663e+06
901967,-1.03778e+06,977700,-1.40594e+06
901886,-1.03706e+06,977075,-1.40652e+06
902369,-1.03771e+06,974274,-1.40563e+06
902030,-1.03877e+06,972820,-1.40575e+06
901816,-1.03966e+06,970238,-1.40587e+06
902121,-1.03981e+06,968337,-1.40587e+06
902557,-1.03927e+06,967131,-1.40535e+06
902517,-1.0397e+06,966456,-1.40515e+06
902115,-1.03965e+06,966297,-1.40639e+06
902384,-1.03975e+06,965498,-1.40565e+06
902563,-1.03946e+06,965603,-1.4052e+06
903175,-1.04034e+06,964433,-1.40532e+06
902729,-1.04083e+06,964028,-1.40631e+06
903070,-1.04082e+06,962759,-1.40519e+06
902836,-1.04011e+06,961673,-1.40474e+06
903213,-1.04037e+06,960996,-1.40456e+06
902682,-1.041e+06,960998,-1.40498e+06
903139,-1.04082e+06,961221,-1.4048e+06
903324,-1.03951e+06,966399,-1.40458e+06
902561,-1.0373e+06,975977,-1.40454e+06
902271,-1.03366e+06,988827,-1.40453e+06
901383,-1.03028e+06,1.003e+06,-1.40556e+06
900894,-1.0264e+06,1.01768e+06,-1.40518e+06
900615,-1.02378e+06,1.02535e+06,-1.40528e+06
899939,-1.02295e+06,1.02926e+06,-1.40569e+06
900212,-1.02382e+06,1.02801e+06,-1.40487e+06
900091,-1.02469e+06,1.02374e+06,-1.40591e+06
901179,-1.02644e+06,1.01762e+06,-1.40498e+06
900940,-1.0287e+06,1.01174e+06,-1.40528e+06
900712,-1.02986e+06,1.00605e+06,-1.40647e+06
901374,-1.03093e+06,1.00157e+06,-1.40535e+06
901456,-1.03265e+06,997470,-1.40523e+06
901421,-1.03396e+06,993180,-1.4055e+06
901241,-1.03504e+06,989511,-1.40595e+06
901789,-1.03569e+06,985985,-1.40572e+06
902261,-1.03596e+06,983571,-1.40627e+06
902049,-1.03654e+06,983185,-1.40567e+06
901784,-1.03581e+06,982840,-1.4064e+06
902100,-1.03624e+06,984123,-1.40566e+06
902225,-1.03455e+06,986220,-1.40507e+06
902620,-1.03432e+06,987979,-1.40538e+06
902102,-1.03497e+06,988296,-1.40553e+06
901801,-1.03439e+06,988613,-1.4054e+06
902172,-1.03432e+06,988061,-1.40598e+06
903029,-1.03475e+06,986414,-1.40503e+06
902087,-1.03572e+06,984644,-1.40621e+06
902441,-1.03599e+06,981909,-1.40545e+06
902307,-1.03566e+06,980803,-1.40594e+06
903188,-1.03672e+06,979101,-1.40475e+06
902708,-1.03638e+06,976993,-1.40623e+06
902469,-1.03728e+06,975366,-1.40547e+06
902606,-1.03807e+06,974345,-1.40468e+06
903226,-1.03772e+06,973793,-1.40517e+06
903183,-1.03737e+06,972792,-1.40501e+06
903228,-1.0387e+06,970778,-1.40519e+06
903152,-1.03813e+06,969537,-1.40514e+06
903691,-1.03774e+06,970418,-1.40532e+06
903614,-1.03907e+06,969433,-1.40453e+06
903520,-1.03838e+06,968407,-1.40565e+06
903456,-1.03916e+06,967462,-1.40561e+06
903647,-1.03901e+06,967460,-1.40452e+06
904068,-1.03889e+06,967266,-1.40416e+06
904371,-1.03841e+06,966511,-1.40436e+06
903746,-1.03858e+06,966741,-1.40521e+06
904013,-1.03826e+06,967624,-1.40401e+06
904292,-1.0372e+06,973624,-1.40385e+06
903324,-1.03542e+06,982108,-1.40495e+06
902697,-1.03196e+06,996467,-1.40428e+06
903264,-1.02763e+06,1.01136e+06,-1.40374e+06
901827,-1.02456e+06,1.02214e+06,-1.40427e+06
901108,-1.02258e+06,1.0298e+06,-1.40514e+06
900955,-1.02231e+06,1.03315e+06,-1.40501e+06
901340,-1.02178e+06,1.03185e+06,-1.40506e+06
901899,-1.02398e+06,1.02634e+06,-1.40468e+06
901417,-1.02532e+06,1.02035e+06,-1.40571e+06
901789,-1.0268e+06,1.01497e+06,-1.40502e+06
902181,-1.02807e+06,1.01123e+06,-1.40479e+06
902371,-1.02905e+06,1.00655e+06,-1.4057e+06
902121,-1.03058e+06,1.00213e+06,-1.40627e+06
902970,-1.03234e+06,997210,-1.40537e+06
902828,-1.03273e+06,994365,-1.405e+06
903222,-1.03315e+06,990614,-1.40475e+06
902799,-1.03445e+06,988891,-1.40562e+06
902951,-1.03385e+06,987458,-1.40519e+06
903575,-1.03333e+06,988374,-1.40474e+06
903546,-1.03297e+06,989875,-1.40456e+06
902838,-1.03407e+06,990497,-1.40604e+06
903516,-1.03294e+06,991089,-1.40519e+06
903516,-1.03234e+06,992408,-1.40536e+06
903783,-1.03261e+06,992088,-1.40468e+06
903326,-1.03308e+06,990239,-1.4059e+06
903076,-1.0336e+06,988871,-1.40529e+06
903471,-1.03388e+06,987835,-1.4048e+06
903780,-1.03397e+06,986066,-1.40466e+06
903595,-1.03483e+06,984912,-1.40513e+06
903691,-1.03519e+06,982157,-1.40495e+06
904081,-1.03555e+06,979805,-1.40478e+06
904585,-1.03573e+06,978210,-1.40442e+06
904284,-1.03634e+06,975963,-1.40452e+06
904540,-1.03666e+06,974012,-1.40488e+06
904207,-1.03768e+06,972958,-1.40559e+06
904455,-1.03716e+06,971516,-1.40514e+06
904606,-1.03744e+06,970875,-1.40513e+06
904862,-1.03846e+06,970226,-1.40568e+06
904585,-1.03785e+06,970187,-1.405e+06
905649,-1.03767e+06,969484,-1.40392e+06
905080,-1.03879e+06,968650,-1.40463e+06
905260,-1.03883e+06,968177,-1.4042e+06
905945,-1.0378e+06,968325,-1.40385e+06
905734,-1.03766e+06,967872,-1.40369e+06
904623,-1.03937e+06,967241,-1.40412e+06
905418,-1.03772e+06,967624,-1.40381e+06
905541,-1.03674e+06,971131,-1.40422e+06
905560,-1.03511e+06,978992,-1.40364e+06
904024,-1.03266e+06,993261,-1.40495e+06
904176,-1.02836e+06,1.00579e+06,-1.40349e+06
903298,-1.0246e+06,1.02028e+06,-1.40427e+06
902767,-1.02263e+06,1.03023e+06,-1.40399e+06
902486,-1.02241e+06,1.03301e+06,-1.40423e+06
901978,-1.02255e+06,1.03231e+06,-1.40519e+06
902671,-1.02246e+06,1.02913e+06,-1.40499e+06
903008,-1.02403e+06,1.02288e+06,-1.40452e+06
902428,-1.02664e+06,1.01729e+06,-1.40527e+06
902936,-1.0277e+06,1.0116e+06,-1.40508e+06
903251,-1.02883e+06,1.00823e+06,-1.40579e+06
903590,-1.02962e+06,1.00297e+06,-1.40639e+06
904172,-1.03143e+06,999392,-1.40526e+06
903565,-1.03268e+06,995438,-1.40548e+06
904246,-1.03289e+06,991627,-1.40487e+06
904728,-1.03329e+06,990398,-1.40484e+06
903874,-1.03366e+06,988212,-1.40605e+06
903968,-1.03474e+06,987321,-1.40529e+06
904439,-1.03347e+06,987538,-1.40557e+06
904561,-1.03355e+06,987743,-1.40546e+06
904113,-1.03351e+06,988129,-1.4053e+06
903865,-1.03411e+06,989693,-1.40557e+06
904292,-1.03327e+06,989507,-1.40485e+06
904699,-1.0338e+06,989274,-1.40504e+06
904043,-1.03382e+06,987949,-1.40541e+06
904384,-1.03489e+06,986148,-1.4054e+06
904701,-1.0342e+06,984230,-1.40586e+06
904538,-1.03558e+06,981824,-1.40486e+06
904691,-1.03616e+06,979316,-1.40568e+06
904883,-1.03712e+06,977203,-1.40558e+06
904602,-1.03661e+06,975989,-1.40562e+06
905007,-1.03746e+06,974299,-1.40479e+06
905092,-1.03812e+06,971220,-1.40505e+06
905099,-1.03912e+06,969656,-1.40526e+06
905262,-1.03894e+06,968962,-1.40557e+06
905384,-1.03843e+06,967588,-1.40466e+06
904991,-1.03954e+06,966285,-1.40505e+06
905190,-1.03941e+06,966153,-1.40464e+06
905670,-1.03903e+06,964867,-1.40526e+06
905429,-1.03981e+06,963053,-1.40451e+06
905387,-1.04022e+06,961853,-1.40496e+06
905581,-1.04068e+06,961985,-1.40468e+06
906322,-1.04018e+06,960772,-1.40426e+06
906089,-1.04059e+06,960141,-1.40425e+06
905367,-1.04062e+06,959957,-1.40534e+06
905828,-1.04095e+06,959605,-1.4044e+06
906069,-1.03942e+06,962787,-1.40491e+06
905399,-1.03812e+06,969554,-1.40434e+06
904770,-1.03554e+06,982726,-1.40456e+06
904474,-1.03212e+06,996327,-1.40434e+06
904022,-1.02818e+06,1.01027e+06,-1.4048e+06
903336,-1.02603e+06,1.02039e+06,-1.40457e+06
902714,-1.02476e+06,1.0252e+06,-1.40544e+06
902469,-1.02488e+06,1.02635e+06,-1.40582e+06
903021,-1.02587e+06,1.02272e+06,-1.40506e+06
903190,-1.02714e+06,1.01685e+06,-1.40525e+06
903094,-1.02925e+06,1.0094e+06,-1.40629e+06
903614,-1.03143e+06,1.00398e+06,-1.40542e+06
903691,-1.03134e+06,1.00035e+06,-1.40627e+06
903973,-1.03237e+06,996425,-1.40637e+06
903855,-1.03424e+06,991484,-1.40581e+06
903744,-1.03542e+06,986866,-1.40568e+06
904401,-1.03591e+06,983240,-1.40649e+06
904365,-1.03681e+06,981598,-1.40577e+06
903893,-1.03724e+06,980229,-1.40609e+06
904301,-1.03714e+06,979199,-1.40613e+06
904369,-1.03647e+06,980383,-1.4065e+06
904510,-1.03656e+06,981144,-1.40643e+06
904544,-1.03618e+06,981639,-1.40667e+06
904373,-1.03642e+06,982880,-1.40597e+06
903932,-1.03634e+06,982703,-1.40637e+06
904463,-1.03616e+06,981583,-1.40624e+06
904360,-1.03662e+06,979828,-1.40616e+06
904098,-1.03763e+06,977081,-1.40618e+06
904953,-1.03801e+06,975567,-1.40578e+06
904578,-1.03823e+06,973816,-1.40652e+06
904222,-1.0397e+06,970998,-1.40627e+06
904331,-1.03994e+06,968341,-1.40638e+06
904716,-1.04041e+06,966344,-1.406e+06
904830,-1.04034e+06,964476,-1.40697e+06
904653,-1.04114e+06,961851,-1.40681e+06
905230,-1.04169e+06,960342,-1.40592e+06
904985,-1.04127e+06,959805,-1.40632e+06
904957,-1.04158e+06,958387,-1.40632e+06
905378,-1.04214e+06,957246,-1.40603e+06
904804,-1.04259e+06,957604,-1.40627e+06
905175,-1.04202e+06,956770,-1.40635e+06
905647,-1.04193e+06,955661,-1.40541e+06
904991,-1.04298e+06,955373,-1.4057e+06
905184,-1.04316e+06,954554,-1.40592e+06
905348,-1.04257e+06,953691,-1.40628e+06
905572,-1.0425e+06,953934,-1.40603e+06
905145,-1.04248e+06,953545,-1.40618e+06
905649,-1.04265e+06,952878,-1.40629e+06
905382,-1.04184e+06,955467,-1.40556e+06
905274,-1.04094e+06,961898,-1.40487e+06
904794,-1.03791e+06,974020,-1.40503e+06
904017,-1.03444e+06,987039,-1.40606e+06
903695,-1.03071e+06,1.00244e+06,-1.40647e+06
903120,-1.02749e+06,1.01318e+06,-1.40563e+06
902629,-1.026e+06,1.0206e+06,-1.40608e+06
902292,-1.02678e+06,1.02087e+06,-1.40587e+06
903137,-1.02764e+06,1.01759e+06,-1.4059e+06
903324,-1.02843e+06,1.01185e+06,-1.40566e+06
903068,-1.02993e+06,1.00608e+06,-1.40604e+06
903209,-1.03183e+06,999845,-1.4064e+06
903186,-1.03326e+06,995818,-1.40741e+06
904049,-1.03473e+06,991206,-1.40612e+06
904525,-1.0351e+06,987120,-1.40624e+06
903783,-1.03673e+06,983338,-1.40661e+06
903804,-1.03757e+06,979871,-1.40695e+06
904940,-1.03764e+06,977456,-1.40641e+06
904149,-1.03784e+06,977137,-1.40656e+06
904286,-1.03866e+06,975846,-1.40679e+06
903885,-1.03841e+06,976181,-1.40693e+06
904627,-1.03751e+06,977251,-1.40605e+06
904075,-1.03679e+06,978843,-1.4072e+06
903975,-1.03701e+06,980176,-1.40682e+06
903723,-1.0364e+06,981193,-1.40746e+06
904734,-1.03593e+06,981850,-1.40616e+06
904314,-1.03608e+06,980610,-1.40732e+06
903802,-1.03697e+06,978132,-1.4075e+06
904090,-1.03739e+06,976418,-1.40684e+06
904661,-1.03744e+06,975019,-1.4065e+06
904468,-1.0378e+06,973361,-1.40722e+06
904877,-1.03906e+06,971613,-1.40673e+06
904745,-1.03903e+06,969646,-1.40679e+06
904604,-1.03901e+06,968530,-1.40712e+06
904917,-1.03895e+06,967123,-1.40613e+06
904762,-1.03944e+06,965259,-1.40737e+06
905196,-1.04012e+06,964052,-1.40653e+06
905380,-1.04045e+06,963940,-1.40643e+06
905182,-1.03961e+06,964048,-1.40678e+06
905429,-1.04001e+06,962563,-1.40591e+06
905535,-1.04034e+06,961851,-1.40637e+06
905484,-1.04023e+06,961872,-1.40578e+06
906129,-1.04018e+06,961000,-1.4056e+06
905728,-1.0409e+06,960031,-1.40611e+06
905289,-1.04072e+06,959622,-1.40576e+06
906037,-1.03994e+06,959995,-1.4054e+06
905679,-1.03989e+06,960666,-1.40589e+06
905086,-1.03963e+06,963038,-1.40657e+06
905640,-1.03771e+06,970538,-1.40533e+06
905319,-1.0347e+06,981935,-1.40594e+06
904684,-1.03106e+06,996423,-1.40531e+06
903522,-1.02828e+06,1.0099e+06,-1.40641e+06
903590,-1.02536e+06,1.02128e+06,-1.40566e+06
903090,-1.02383e+06,1.02641e+06,-1.40533e+06
903315,-1.02389e+06,1.02703e+06,-1.40552e+06
903609,-1.02454e+06,1.02392e+06,-1.40643e+06
902870,-1.02616e+06,1.01728e+06,-1.40735e+06
903749,-1.02787e+06,1.01271e+06,-1.40638e+06
904487,-1.0291e+06,1.00685e+06,-1.40607e+06
903951,-1.03051e+06,1.00154e+06,-1.40761e+06
903810,-1.03209e+06,997765,-1.40764e+06
904284,-1.03307e+06,993160,-1.40687e+06
904932,-1.03369e+06,989629,-1.40655e+06
904633,-1.03451e+06,986553,-1.40734e+06
905218,-1.03556e+06,984100,-1.4068e+06
904682,-1.03602e+06,983274,-1.40697e+06
905393,-1.03526e+06,983369,-1.40632e+06
905431,-1.03507e+06,983778,-1.40619e+06
904983,-1.03531e+06,984472,-1.40674e+06
904706,-1.03444e+06,985795,-1.40745e+06
905035,-1.03385e+06,987973,-1.40649e+06
904834,-1.03427e+06,988148,-1.40762e+06
904604,-1.03477e+06,987941,-1.40696e+06
905336,-1.03436e+06,987718,-1.40649e+06
905397,-1.03443e+06,986032,-1.40637e+06
904991,-1.03562e+06,984381,-1.40683e+06
905116,-1.03574e+06,982390,-1.40663e+06
905527,-1.03544e+06,980585,-1.40653e+06
905689,-1.03597e+06,977827,-1.4061e+06
905525,-1.03703e+06,975710,-1.40643e+06
905683,-1.03758e+06,973571,-1.40637e+06
906496,-1.03816e+06,972184,-1.40619e+06
906024,-1.03845e+06,970303,-1.40613e+06
905879,-1.03886e+06,967836,-1.40713e+06
906079,-1.03896e+06,966801,-1.40661e+06
906220,-1.03914e+06,967539,-1.40601e+06
906581,-1.03861e+06,967076,-1.40646e+06
906459,-1.03961e+06,965908,-1.40728e+06
906250,-1.03993e+06,965082,-1.40602e+06
906841,-1.03946e+06,964270,-1.40538e+06
907440,-1.03976e+06,963669,-1.40539e+06
906946,-1.0402e+06,962588,-1.40595e+06
907005,-1.03986e+06,961724,-1.40531e+06
907488,-1.03982e+06,962492,-1.40518e+06
906798,-1.03839e+06,967302,-1.4055e+06
906498,-1.03703e+06,974274,-1.40538e+06
905512,-1.03439e+06,986612,-1.40533e+06
905960,-1.03102e+06,1.00002e+06,-1.40503e+06
905611,-1.02735e+06,1.01388e+06,-1.40492e+06
904790,-1.02532e+06,1.02139e+06,-1.40638e+06
903804,-1.02425e+06,1.02656e+06,-1.40601e+06
904214,-1.02515e+06,1.02495e+06,-1.40625e+06
904504,-1.02587e+06,1.02085e+06,-1.40683e+06
904606,-1.02751e+06,1.01377e+06,-1.4063e+06
904380,-1.02947e+06,1.00773e+06,-1.40726e+06
904785,-1.03166e+06,1.00213e+06,-1.407e+06
905319,-1.03161e+06,998560,-1.40696e+06
905598,-1.03297e+06,993561,-1.40753e+06
905254,-1.03472e+06,989242,-1.40749e+06
905924,-1.03564e+06,984915,-1.40674e+06
905757,-1.03629e+06,982487,-1.40641e+06
906095,-1.03693e+06,980161,-1.40708e+06
906381,-1.03673e+06,978804,-1.40679e+06
905655,-1.03731e+06,978792,-1.40685e+06
905858,-1.0364e+06,979655,-1.40605e+06
906356,-1.03587e+06,981545,-1.40609e+06
906248,-1.03568e+06,982804,-1.40745e+06
905600,-1.03552e+06,983100,-1.4075e+06
906069,-1.03536e+06,984032,-1.40658e+06
906013,-1.03527e+06,983338,-1.40621e+06
905933,-1.03593e+06,981378,-1.40625e+06
905670,-1.03658e+06,979054,-1.40659e+06
905871,-1.03648e+06,978205,-1.40687e+06
906745,-1.03693e+06,976591,-1.40637e+06
906218,-1.03738e+06,974341,-1.40747e+06
906542,-1.0383e+06,971890,-1.4066e+06
906862,-1.03946e+06,969559,-1.40614e+06
906929,-1.03939e+06,967178,-1.40613e+06
906726,-1.0397e+06,965474,-1.4066e+06
906737,-1.04081e+06,963815,-1.40635e+06
906593,-1.04097e+06,962700,-1.40634e+06
907585,-1.04032e+06,961618,-1.40576e+06
906610,-1.04071e+06,960662,-1.407e+06
907073,-1.04116e+06,960418,-1.40612e+06
906946,-1.04155e+06,960204,-1.4058e+06
907285,-1.04086e+06,959458,-1.40562e+06
906923,-1.0415e+06,959061,-1.4068e+06
906898,-1.04147e+06,956626,-1.40675e+06
907935,-1.0415e+06,956491,-1.40533e+06
907566,-1.04157e+06,955559,-1.40573e+06
907005,-1.04298e+06,954412,-1.40576e+06
906967,-1.04198e+06,958935,-1.40589e+06
907837,-1.03913e+06,966191,-1.40508e+06
907329,-1.0363e+06,979205,-1.40503e+06
905892,-1.03388e+06,991843,-1.4053e+06
905029,-1.03041e+06,1.00663e+06,-1.40585e+06
904712,-1.02696e+06,1.01637e+06,-1.40543e+06
905201,-1.02573e+06,1.02133e+06,-1.40529e+06
904792,-1.02614e+06,1.02159e+06,-1.40611e+06
904128,-1.02773e+06,1.01742e+06,-1.4067e+06
904576,-1.02829e+06,1.01242e+06,-1.40656e+06
905024,-1.03037e+06,1.00649e+06,-1.40736e+06
905353,-1.03209e+06,1.00066e+06,-1.40657e+06
904923,-1.033e+06,995545,-1.4078e+06
905114,-1.03412e+06,992930,-1.40749e+06
906167,-1.0349e+06,987867,-1.40654e+06
905723,-1.0362e+06,983044,-1.40775e+06
905888,-1.03753e+06,979295,-1.407e+06
905903,-1.03788e+06,976900,-1.40704e+06
906654,-1.03785e+06,976642,-1.40653e+06
906015,-1.03879e+06,976657,-1.40681e+06
906487,-1.03815e+06,976394,-1.40709e+06
905568,-1.03798e+06,976552,-1.40788e+06
905854,-1.03747e+06,977880,-1.40689e+06
906530,-1.03757e+06,978585,-1.40677e+06
905937,-1.03852e+06,977569,-1.40733e+06
905489,-1.03782e+06,977488,-1.40748e+06
905841,-1.03807e+06,976347,-1.40666e+06
906333,-1.03828e+06,974272,-1.40665e+06
905615,-1.03967e+06,972274,-1.40743e+06
906242,-1.03989e+06,969169,-1.4067e+06
906396,-1.04034e+06,967944,-1.40686e+06
906417,-1.04096e+06,965707,-1.4069e+06
906041,-1.04211e+06,962270,-1.40711e+06
906312,-1.04289e+06,959752,-1.40776e+06
906445,-1.04217e+06,958636,-1.40669e+06
907404,-1.04263e+06,956406,-1.40646e+06
906602,-1.04284e+06,955428,-1.40705e+06
906436,-1.04323e+06,954330,-1.40776e+06
907289,-1.04295e+06,953824,-1.40629e+06
907632,-1.04332e+06,953142,-1.40616e+06
906510,-1.04504e+06,952029,-1.40679e+06
906570,-1.04464e+06,950933,-1.40694e+06
907617,-1.04439e+06,950843,-1.40595e+06
907110,-1.04441e+06,949244,-1.40629e+06
907295,-1.0459e+06,947253,-1.40642e+06
907078,-1.0449e+06,947550,-1.40622e+06
907856,-1.04392e+06,948438,-1.40568e+06
907600,-1.04343e+06,949589,-1.40676e+06
906650,-1.04293e+06,957172,-1.40628e+06
906854,-1.04058e+06,968360,-1.40554e+06
906849,-1.03663e+06,980993,-1.4056e+06
906165,-1.03361e+06,995904,-1.40554e+06
904712,-1.03127e+06,1.00601e+06,-1.40656e+06
904233,-1.02899e+06,1.01296e+06,-1.40737e+06
904561,-1.0285e+06,1.01475e+06,-1.40632e+06
905188,-1.0289e+06,1.01163e+06,-1.40643e+06
904678,-1.03068e+06,1.00572e+06,-1.40855e+06
904538,-1.03252e+06,999561,-1.40749e+06
904979,-1.03397e+06,994670,-1.4067e+06
905958,-1.03507e+06,989413,-1.40687e+06
905879,-1.03695e+06,985450,-1.40777e+06
905638,-1.03802e+06,981400,-1.40765e+06
906009,-1.03867e+06,976503,-1.40762e+06
906104,-1.03974e+06,973074,-1.40797e+06
905964,-1.03953e+06,971237,-1.40807e+06
905886,-1.04031e+06,969457,-1.4078e+06
905768,-1.04066e+06,969296,-1.40771e+06
906625,-1.03982e+06,970297,-1.40697e+06
906047,-1.03918e+06,971823,-1.40776e+06
905818,-1.03929e+06,973253,-1.40761e+06
906037,-1.03889e+06,975156,-1.40739e+06
906089,-1.03805e+06,975702,-1.40832e+06
906056,-1.03818e+06,974788,-1.40732e+06
905736,-1.03875e+06,973622,-1.40779e+06
906718,-1.03812e+06,973010,-1.40714e+06
906679,-1.03915e+06,971316,-1.40713e+06
906186,-1.03985e+06,969631,-1.40771e+06
906396,-1.04097e+06,967313,-1.40775e+06
906377,-1.0405e+06,966490,-1.40738e+06
906504,-1.04048e+06,964022,-1.40766e+06
906576,-1.04139e+06,962653,-1.40849e+06
906180,-1.04148e+06,961132,-1.40842e+06
907285,-1.04186e+06,960240,-1.40723e+06
906927,-1.0419e+06,958575,-1.40699e+06
906741,-1.04233e+06,956834,-1.40714e+06
906694,-1.04251e+06,956626,-1.40689e+06
907784,-1.04252e+06,956653,-1.40656e+06
907063,-1.04175e+06,956252,-1.40768e+06
907285,-1.04281e+06,956090,-1.40693e+06
907059,-1.04242e+06,954919,-1.40744e+06
907353,-1.04217e+06,954234,-1.40721e+06
907626,-1.04228e+06,953168,-1.40702e+06
907421,-1.04382e+06,952459,-1.40673e+06
907630,-1.04291e+06,956105,-1.40667e+06
908140,-1.04067e+06,962877,-1.40591e+06
907185,-1.03746e+06,975708,-1.40586e+06
906474,-1.03511e+06,985917,-1.40768e+06
905854,-1.03251e+06,1.00084e+06,-1.40744e+06
905367,-1.02886e+06,1.01153e+06,-1.40686e+06
905192,-1.02697e+06,1.01915e+06,-1.40713e+06
905416,-1.02663e+06,1.02028e+06,-1.40765e+06
905077,-1.02807e+06,1.01764e+06,-1.40737e+06
905056,-1.02866e+06,1.01181e+06,-1.40687e+06
905435,-1.03001e+06,1.0064e+06,-1.40779e+06
906195,-1.03212e+06,998501,-1.40733e+06
905391,-1.03453e+06,992764,-1.40773e+06
906035,-1.03546e+06,989437,-1.40776e+06
906430,-1.03511e+06,987180,-1.40737e+06
906169,-1.03651e+06,983921,-1.40737e+06
905992,-1.0369e+06,980286,-1.40859e+06
906250,-1.037e+06,977909,-1.40818e+06
906639,-1.03745e+06,975067,-1.40796e+06
906633,-1.03764e+06,974183,-1.40825e+06
906389,-1.03789e+06,974534,-1.40762e+06
906350,-1.03734e+06,976413,-1.40753e+06
906515,-1.03687e+06,979111,-1.40736e+06
906860,-1.03659e+06,979894,-1.40762e+06
906720,-1.03641e+06,979503,-1.40759e+06
906633,-1.03671e+06,979162,-1.40746e+06
906722,-1.03691e+06,978053,-1.40695e+06
907281,-1.03779e+06,977107,-1.40708e+06
907289,-1.0379e+06,974468,-1.40803e+06
907187,-1.03834e+06,972610,-1.40733e+06
907496,-1.03842e+06,971055,-1.40696e+06
907336,-1.03879e+06,968763,-1.40714e+06
907577,-1.03989e+06,966822,-1.40829e+06
907429,-1.04015e+06,964469,-1.40745e+06
907971,-1.04057e+06,962941,-1.40709e+06
907581,-1.04073e+06,962478,-1.40711e+06
907700,-1.04075e+06,960844,-1.40705e+06
907737,-1.04112e+06,960454,-1.40784e+06
907869,-1.04089e+06,959197,-1.40774e+06
908061,-1.04112e+06,959037,-1.40687e+06
908353,-1.04157e+06,957282,-1.40662e+06
908189,-1.04226e+06,956905,-1.40763e+06
908322,-1.04153e+06,955957,-1.40664e+06
908311,-1.04153e+06,955301,-1.4063e+06
908296,-1.04171e+06,955045,-1.40719e+06
908214,-1.04193e+06,955595,-1.40725e+06
908552,-1.04085e+06,960387,-1.40617e+06
908492,-1.03893e+06,968940,-1.40604e+06
907820,-1.03546e+06,983113,-1.40591e+06
907014,-1.0321e+06,994706,-1.40615e+06
906312,-1.02886e+06,1.00791e+06,-1.40603e+06
906129,-1.02618e+06,1.01701e+06,-1.40613e+06
905342,-1.02575e+06,1.0201e+06,-1.40724e+06
905299,-1.02692e+06,1.01835e+06,-1.40691e+06
905549,-1.02731e+06,1.01461e+06,-1.40791e+06
905879,-1.02885e+06,1.00904e+06,-1.40709e+06
906280,-1.03111e+06,1.00324e+06,-1.40737e+06
906417,-1.03283e+06,997475,-1.40859e+06
906379,-1.03394e+06,993674,-1.40788e+06
907189,-1.03457e+06,988842,-1.40812e+06
906868,-1.0365e+06,983594,-1.40852e+06
907253,-1.03723e+06,980058,-1.40886e+06
907349,-1.03776e+06,976936,-1.40836e+06
907423,-1.03781e+06,975686,-1.4076e+06
907044,-1.03846e+06,974244,-1.40846e+06
906948,-1.03869e+06,973048,-1.40888e+06
907175,-1.03875e+06,973524,-1.40761e+06
907496,-1.03917e+06,974052,-1.4075e+06
907700,-1.03907e+06,974995,-1.40764e+06
907213,-1.0392e+06,974673,-1.40802e+06
907731,-1.03911e+06,974936,-1.40794e+06
907466,-1.03872e+06,975360,-1.40781e+06
906980,-1.03913e+06,974115,-1.40829e+06
907283,-1.03878e+06,973988,-1.40839e+06
908010,-1.03897e+06,972668,-1.40769e+06
907431,-1.0397e+06,970386,-1.40789e+06
907387,-1.0407e+06,967235,-1.40811e+06
907503,-1.04079e+06,966365,-1.40778e+06
908074,-1.04124e+06,964035,-1.40753e+06
907556,-1.04147e+06,963290,-1.40776e+06
907304,-1.04133e+06,961432,-1.40797e+06
907372,-1.04126e+06,961178,-1.4082e+06
907719,-1.04141e+06,960448,-1.40844e+06
908072,-1.04117e+06,958300,-1.40758e+06
907666,-1.04202e+06,956857,-1.40843e+06
908216,-1.04236e+06,956548,-1.40816e+06
908298,-1.04183e+06,955172,-1.40787e+06
908197,-1.04214e+06,954296,-1.40747e+06
908302,-1.04302e+06,952730,-1.40726e+06
908233,-1.0432e+06,952319,-1.40732e+06
909010,-1.04289e+06,951346,-1.40681e+06
908298,-1.04368e+06,951251,-1.40777e+06
908034,-1.0428e+06,956250,-1.40781e+06
907636,-1.03968e+06,966114,-1.40762e+06
907690,-1.03641e+06,980305,-1.40758e+06
907158,-1.03446e+06,991951,-1.40703e+06
906180,-1.03071e+06,1.00411e+06,-1.40741e+06
906116,-1.02939e+06,1.01168e+06,-1.40776e+06
905941,-1.02761e+06,1.01504e+06,-1.40807e+06
905779,-1.02874e+06,1.01421e+06,-1.40849e+06
906108,-1.02993e+06,1.00885e+06,-1.40782e+06
905713,-1.03165e+06,1.00349e+06,-1.40816e+06
906540,-1.03286e+06,997356,-1.40805e+06
906240,-1.03435e+06,992399,-1.40847e+06
906265,-1.03579e+06,987811,-1.40957e+06
906749,-1.03654e+06,984186,-1.40852e+06
906954,-1.03783e+06,980679,-1.40852e+06
906796,-1.03913e+06,975989,-1.40942e+06
906993,-1.03932e+06,972781,-1.40892e+06
907448,-1.03975e+06,971326,-1.40881e+06
907359,-1.03969e+06,970049,-1.40932e+06
906749,-1.0396e+06,970610,-1.40895e+06
906589,-1.03958e+06,970322,-1.40893e+06
907189,-1.04004e+06,971109,-1.40897e+06
907515,-1.03924e+06,971649,-1.40841e+06
906815,-1.03927e+06,972120,-1.40917e+06
906707,-1.04017e+06,971804,-1.40906e+06
906969,-1.03958e+06,971967,-1.40929e+06
907219,-1.03947e+06,970062,-1.40848e+06
906965,-1.04036e+06,968221,-1.40909e+06
906769,-1.04055e+06,965478,-1.40995e+06
906839,-1.04097e+06,964725,-1.40967e+06
907031,-1.04105e+06,962592,-1.40873e+06
907076,-1.04162e+06,960168,-1.40876e+06
907452,-1.043e+06,958402,-1.40899e+06
907046,-1.04285e+06,957936,-1.40849e+06
907558,-1.04219e+06,956325,-1.40842e+06
907532,-1.04231e+06,954996,-1.40919e+06
907022,-1.04259e+06,954042,-1.40886e+06
907454,-1.04393e+06,952027,-1.4093e+06
908153,-1.0433e+06,951060,-1.40838e+06
908106,-1.04422e+06,950108,-1.40799e+06
907737,-1.04468e+06,948996,-1.40842e+06
907990,-1.04434e+06,947460,-1.40816e+06
908025,-1.04412e+06,947448,-1.40875e+06
907820,-1.04453e+06,946542,-1.40867e+06
908485,-1.04504e+06,946232,-1.40803e+06
908250,-1.04445e+06,946286,-1.40785e+06
908165,-1.04306e+06,952413,-1.40842e+06
908187,-1.04127e+06,960931,-1.40751e+06
907342,-1.03809e+06,975243,-1.40765e+06
907173,-1.03542e+06,987915,-1.40768e+06
906472,-1.03209e+06,1.00066e+06,-1.40771e+06
906523,-1.0302e+06,1.00704e+06,-1.40787e+06
905395,-1.02958e+06,1.01052e+06,-1.40919e+06
905704,-1.03003e+06,1.00832e+06,-1.40845e+06
905529,-1.03095e+06,1.00421e+06,-1.40946e+06
906553,-1.03266e+06,998857,-1.40947e+06
906402,-1.03487e+06,992721,-1.40909e+06
906352,-1.03625e+06,986738,-1.40934e+06
906278,-1.03706e+06,982741,-1.41007e+06
906837,-1.03865e+06,976601,-1.40921e+06
906929,-1.04062e+06,972039,-1.40945e+06
906849,-1.04171e+06,967430,-1.40954e+06
906856,-1.04161e+06,965794,-1.41024e+06
907298,-1.04213e+06,964259,-1.40915e+06
906877,-1.04206e+06,963686,-1.40955e+06
906606,-1.04176e+06,963529,-1.4105e+06
907129,-1.04115e+06,965508,-1.40961e+06
906999,-1.04066e+06,967548,-1.4093e+06
906807,-1.04021e+06,969296,-1.4094e+06
907259,-1.04088e+06,969872,-1.40997e+06
907283,-1.04054e+06,970252,-1.40918e+06
906957,-1.03992e+06,969085,-1.40897e+06
907454,-1.0403e+06,967665,-1.40908e+06
906944,-1.04139e+06,965927,-1.40958e+06
907579,-1.04098e+06,963997,-1.40944e+06
907281,-1.04105e+06,963307,-1.41005e+06
907619,-1.04129e+06,962188,-1.41004e+06
907213,-1.04161e+06,960217,-1.41012e+06
907801,-1.04201e+06,958317,-1.40963e+06
908078,-1.04231e+06,956408,-1.40887e+06
908029,-1.04265e+06,954166,-1.4088e+06
907907,-1.04339e+06,952758,-1.40895e+06
908044,-1.04302e+06,953128,-1.40899e+06
908106,-1.04314e+06,953221,-1.40945e+06
907958,-1.04344e+06,953362,-1.409e+06
908622,-1.04349e+06,951965,-1.40957e+06
908400,-1.04357e+06,950707,-1.40949e+06
908885,-1.04359e+06,949408,-1.40852e+06
908794,-1.04361e+06,949327,-1.40849e+06
908984,-1.04427e+06,948925,-1.40821e+06
908885,-1.04381e+06,950804,-1.40903e+06
909443,-1.04186e+06,959112,-1.40787e+06
908571,-1.03903e+06,972130,-1.40796e+06
907912,-1.03681e+06,985329,-1.40813e+06
907255,-1.03296e+06,1.00058e+06,-1.40886e+06
906493,-1.02914e+06,1.01115e+06,-1.4089e+06
906686,-1.02784e+06,1.01514e+06,-1.40823e+06
906257,-1.02895e+06,1.0145e+06,-1.4084e+06
905751,-1.02948e+06,1.00979e+06,-1.40997e+06
906396,-1.03034e+06,1.00625e+06,-1.40984e+06
906485,-1.03147e+06,1.00235e+06,-1.40965e+06
907185,-1.03283e+06,998183,-1.40957e+06
906730,-1.03426e+06,994812,-1.40956e+06
906419,-1.03507e+06,991947,-1.40962e+06
907067,-1.03586e+06,987604,-1.40956e+06
907454,-1.03729e+06,981368,-1.40975e+06
907202,-1.03856e+06,978056,-1.40986e+06
907323,-1.03838e+06,975780,-1.40963e+06
907687,-1.03873e+06,975981,-1.41007e+06
907577,-1.03776e+06,976872,-1.41011e+06
907486,-1.03812e+06,976913,-1.40982e+06
907492,-1.0378e+06,978077,-1.40954e+06
907317,-1.03696e+06,980001,-1.40936e+06
907419,-1.03684e+06,979996,-1.41031e+06
907423,-1.03764e+06,980191,-1.40954e+06
907251,-1.03649e+06,980223,-1.4101e+06
907984,-1.03741e+06,979325,-1.40916e+06
907257,-1.03757e+06,977874,-1.41043e+06
907611,-1.03879e+06,975294,-1.40973e+06
907926,-1.03809e+06,973677,-1.41007e+06
908053,-1.03842e+06,972077,-1.4094e+06
908061,-1.03959e+06,969715,-1.40926e+06
907848,-1.0397e+06,967865,-1.41096e+06
908624,-1.04045e+06,966788,-1.40951e+06
908390,-1.04031e+06,966050,-1.4091e+06
908489,-1.04043e+06,964850,-1.40902e+06
908660,-1.04065e+06,963593,-1.40913e+06
908923,-1.04057e+06,963305,-1.40884e+06
908908,-1.0407e+06,963292,-1.40888e+06
909082,-1.04064e+06,962313,-1.40872e+06
908767,-1.04063e+06,962264,-1.40879e+06
908546,-1.04027e+06,962064,-1.40891e+06
909550,-1.04114e+06,960844,-1.40841e+06
909277,-1.04085e+06,959244,-1.40923e+06
908731,-1.0414e+06,960274,-1.4086e+06
908967,-1.03984e+06,963068,-1.40895e+06
909249,-1.03816e+06,971412,-1.40789e+06
908936,-1.0347e+06,983757,-1.40796e+06
907520,-1.03191e+06,995223,-1.4089e+06
907110,-1.029e+06,1.00906e+06,-1.40823e+06
906730,-1.02586e+06,1.02082e+06,-1.40826e+06
906250,-1.02502e+06,1.02517e+06,-1.40923e+06
906227,-1.02476e+06,1.02689e+06,-1.40889e+06
906474,-1.02428e+06,1.02501e+06,-1.40863e+06
905943,-1.02527e+06,1.01991e+06,-1.40914e+06
906385,-1.02758e+06,1.01449e+06,-1.41046e+06
906005,-1.02859e+06,1.0092e+06,-1.40969e+06
906018,-1.03012e+06,1.00568e+06,-1.41029e+06
906950,-1.0303e+06,1.00175e+06,-1.40951e+06
906974,-1.03215e+06,997951,-1.4096e+06
906866,-1.0331e+06,993250,-1.41052e+06
907264,-1.03424e+06,990870,-1.40996e+06
908008,-1.03482e+06,988174,-1.40952e+06
907692,-1.03444e+06,987206,-1.40958e+06
907363,-1.03464e+06,986429,-1.41048e+06
907756,-1.03452e+06,986485,-1.40958e+06
907639,-1.03388e+06,986775,-1.41029e+06
907169,-1.03376e+06,988451,-1.40981e+06
906944,-1.03372e+06,987969,-1.41051e+06
907370,-1.03327e+06,988737,-1.41034e+06
907660,-1.03366e+06,989515,-1.40951e+06
907304,-1.03341e+06,989202,-1.41033e+06
907259,-1.03377e+06,987259,-1.41059e+06
907822,-1.03406e+06,985913,-1.40951e+06
907788,-1.03459e+06,984186,-1.41005e+06
907554,-1.03534e+06,981729,-1.40947e+06
908093,-1.03537e+06,979602,-1.4099e+06
907939,-1.03644e+06,978161,-1.40947e+06
908231,-1.03614e+06,975975,-1.4091e+06
908428,-1.03692e+06,974701,-1.40908e+06
908605,-1.03759e+06,973239,-1.41003e+06
908500,-1.03745e+06,972737,-1.40921e+06
908620,-1.03711e+06,970784,-1.40945e+06
908460,-1.03748e+06,970117,-1.40965e+06
908349,-1.0378e+06,969396,-1.40975e+06
909143,-1.0379e+06,968345,-1.40872e+06
908895,-1.03853e+06,967506,-1.40856e+06
908914,-1.0388e+06,966579,-1.40907e+06
908765,-1.03934e+06,964452,-1.40943e+06
909460,-1.03932e+06,963997,-1.40819e+06
909311,-1.03873e+06,964547,-1.40885e+06
909042,-1.03922e+06,965165,-1.40829e+06
909304,-1.03751e+06,970975,-1.40824e+06
908586,-1.03497e+06,980542,-1.40796e+06
908921,-1.03157e+06,994732,-1.40765e+06
907805,-1.02932e+06,1.00584e+06,-1.40813e+06
906652,-1.02585e+06,1.01719e+06,-1.40907e+06
906798,-1.02473e+06,1.02477e+06,-1.40854e+06
907027,-1.02331e+06,1.02724e+06,-1.4086e+06
906464,-1.02388e+06,1.02547e+06,-1.40889e+06
906178,-1.02518e+06,1.02188e+06,-1.40984e+06
906927,-1.02702e+06,1.01621e+06,-1.40878e+06
907641,-1.0289e+06,1.00944e+06,-1.40879e+06
907357,-1.0297e+06,1.00426e+06,-1.40995e+06
906779,-1.03156e+06,1.00091e+06,-1.40966e+06
907594,-1.03195e+06,997447,-1.40915e+06
908083,-1.03246e+06,994516,-1.40893e+06
907458,-1.03365e+06,990810,-1.41017e+06
907721,-1.03482e+06,986538,-1.40955e+06
907848,-1.03483e+06,984759,-1.41033e+06
908049,-1.03506e+06,983621,-1.40969e+06
907756,-1.03611e+06,983111,-1.41001e+06
907624,-1.03543e+06,983857,-1.40957e+06
907916,-1.03467e+06,985236,-1.4089e+06
907914,-1.03414e+06,986514,-1.40903e+06
908125,-1.03408e+06,985401,-1.40895e+06
908055,-1.03474e+06,984377,-1.40907e+06
908091,-1.03479e+06,983619,-1.40974e+06
908347,-1.03517e+06,982140,-1.40874e+06
907869,-1.03613e+06,981061,-1.40922e+06
908413,-1.03624e+06,978544,-1.409e+06
908208,-1.03705e+06,976330,-1.40886e+06
908398,-1.03677e+06,975351,-1.40932e+06
908767,-1.03737e+06,973139,-1.40852e+06
908148,-1.03777e+06,971182,-1.40947e+06
908605,-1.03785e+06,969663,-1.40925e+06
908650,-1.03841e+06,968044,-1.40833e+06
908590,-1.03874e+06,967637,-1.40885e+06
908965,-1.03893e+06,966464,-1.40836e+06
909115,-1.03913e+06,965159,-1.40815e+06
909524,-1.03942e+06,964446,-1.40772e+06
909124,-1.03982e+06,963326,-1.40795e+06
909435,-1.04035e+06,962407,-1.40796e+06
909426,-1.03974e+06,961552,-1.4086e+06
909895,-1.03983e+06,960645,-1.40851e+06
909155,-1.04074e+06,960605,-1.40726e+06
909613,-1.0406e+06,960735,-1.40754e+06
909285,-1.0398e+06,963226,-1.40754e+06
909300,-1.03769e+06,970369,-1.4069e+06
908861,-1.03567e+06,979478,-1.40704e+06
908187,-1.03256e+06,992209,-1.40811e+06
907871,-1.02922e+06,1.00644e+06,-1.40705e+06
907387,-1.02575e+06,1.01688e+06,-1.40779e+06
906858,-1.02441e+06,1.02402e+06,-1.40736e+06
906602,-1.02383e+06,1.02561e+06,-1.40784e+06
906389,-1.02371e+06,1.02423e+06,-1.40808e+06
906703,-1.02466e+06,1.02072e+06,-1.408e+06
906595,-1.02645e+06,1.014e+06,-1.40897e+06
906758,-1.02818e+06,1.00912e+06,-1.40826e+06
907581,-1.02978e+06,1.00447e+06,-1.40844e+06
907933,-1.03049e+06,999791,-1.40815e+06
907737,-1.03216e+06,996378,-1.40835e+06
907773,-1.03315e+06,992529,-1.40868e+06
908445,-1.03353e+06,988406,-1.40842e+06
908172,-1.03403e+06,986144,-1.40901e+06
908125,-1.03448e+06,984318,-1.40908e+06
908040,-1.03462e+06,984059,-1.40854e+06
908294,-1.03439e+06,984861,-1.40843e+06
908351,-1.03368e+06,986122,-1.40807e+06
908658,-1.03376e+06,986943,-1.408e+06
907922,-1.03354e+06,987922,-1.40817e+06
908159,-1.03283e+06,988527,-1.40819e+06
908449,-1.0325e+06,989607,-1.40864e+06
908758,-1.03298e+06,989010,-1.40776e+06
908108,-1.03392e+06,987809,-1.40828e+06
908556,-1.03369e+06,985561,-1.40901e+06
908578,-1.03456e+06,983928,-1.4085e+06
908375,-1.0352e+06,981554,-1.40801e+06
908426,-1.03518e+06,979672,-1.4088e+06
909061,-1.03538e+06,977710,-1.40853e+06
909113,-1.03598e+06,977480,-1.40846e+06
908950,-1.03606e+06,975861,-1.40776e+06
909426,-1.03655e+06,973547,-1.4085e+06
909270,-1.03741e+06,972737,-1.40864e+06
909471,-1.03691e+06,971523,-1.40789e+06
909979,-1.03768e+06,970719,-1.40725e+06
909435,-1.03739e+06,969844,-1.40734e+06
909740,-1.03747e+06,968706,-1.40744e+06
909974,-1.03823e+06,967550,-1.40681e+06
910132,-1.03922e+06,965976,-1.40719e+06
909661,-1.03791e+06,966181,-1.40754e+06
910710,-1.03833e+06,966778,-1.40632e+06
910239,-1.03709e+06,968921,-1.40682e+06
909477,-1.03578e+06,975138,-1.40753e+06
909204,-1.03317e+06,986359,-1.40632e+06
909325,-1.02964e+06,1.00001e+06,-1.40684e+06
908430,-1.0256e+06,1.01444e+06,-1.40719e+06
907696,-1.02352e+06,1.02428e+06,-1.40746e+06
906950,-1.0219e+06,1.03007e+06,-1.40776e+06
907585,-1.02161e+06,1.03075e+06,-1.40652e+06
907846,-1.02311e+06,1.02729e+06,-1.40692e+06
907873,-1.02425e+06,1.02212e+06,-1.40811e+06
907406,-1.02575e+06,1.01684e+06,-1.40823e+06
907980,-1.02724e+06,1.01249e+06,-1.40801e+06
908153,-1.02808e+06,1.00771e+06,-1.40798e+06
908842,-1.03024e+06,1.00337e+06,-1.40849e+06
908123,-1.03091e+06,999119,-1.40859e+06
909092,-1.03132e+06,995999,-1.40741e+06
908878,-1.03222e+06,992977,-1.40791e+06
908582,-1.0335e+06,989707,-1.40795e+06
909251,-1.0349e+06,986860,-1.4076e+06
909428,-1.03361e+06,987653,-1.40737e+06
909342,-1.03368e+06,987389,-1.40697e+06
908997,-1.03436e+06,987805,-1.4077e+06
908707,-1.03434e+06,988415,-1.40854e+06
908876,-1.03402e+06,988645,-1.40728e+06
909266,-1.03304e+06,989046,-1.40769e+06
909556,-1.03398e+06,988330,-1.40752e+06
909388,-1.03404e+06,987233,-1.40745e+06
908887,-1.03431e+06,985905,-1.40812e+06
909380,-1.03484e+06,984459,-1.40702e+06
909926,-1.03491e+06,981744,-1.40714e+06
909264,-1.03618e+06,979382,-1.40748e+06
909650,-1.03615e+06,977251,-1.40813e+06
909814,-1.03642e+06,975372,-1.40714e+06
909957,-1.03706e+06,973315,-1.40764e+06
910258,-1.03779e+06,971914,-1.40707e+06
910682,-1.03765e+06,970763,-1.4066e+06
910883,-1.03821e+06,970399,-1.40669e+06
910531,-1.03927e+06,968919,-1.40686e+06
910000,-1.03936e+06,967483,-1.40684e+06
910546,-1.03914e+06,966897,-1.40625e+06
911032,-1.03877e+06,965912,-1.40598e+06
910796,-1.04008e+06,963599,-1.40675e+06
910298,-1.03963e+06,962492,-1.40682e+06
910887,-1.03983e+06,961686,-1.40661e+06
910946,-1.03917e+06,962369,-1.4057e+06
910912,-1.0383e+06,965239,-1.40616e+06
910057,-1.03681e+06,974123,-1.40691e+06
910618,-1.03394e+06,985301,-1.40544e+06
910047,-1.03028e+06,999925,-1.40549e+06
908629,-1.02765e+06,1.01189e+06,-1.40663e+06
908015,-1.02465e+06,1.02196e+06,-1.4063e+06
908085,-1.02341e+06,1.02751e+06,-1.4062e+06
908462,-1.02299e+06,1.02826e+06,-1.40602e+06
908219,-1.02347e+06,1.0251e+06,-1.40693e+06
907977,-1.02518e+06,1.02005e+06,-1.40748e+06
908057,-1.02694e+06,1.015e+06,-1.40674e+06
909074,-1.02859e+06,1.00931e+06,-1.40671e+06
909048,-1.03012e+06,1.00438e+06,-1.40745e+06
908259,-1.03145e+06,1.00053e+06,-1.40761e+06
908515,-1.03253e+06,996727,-1.40725e+06
909678,-1.03271e+06,992774,-1.40694e+06
909291,-1.03343e+06,989005,-1.40834e+06
909249,-1.03514e+06,986429,-1.40746e+06
909119,-1.03487e+06,983934,-1.4075e+06
909496,-1.03503e+06,984508,-1.40695e+06
909029,-1.03542e+06,984064,-1.40823e+06
908912,-1.03553e+06,985295,-1.40761e+06
908946,-1.03391e+06,987246,-1.40782e+06
909479,-1.03359e+06,987862,-1.40679e+06
909072,-1.03424e+06,987276,-1.40799e+06
908831,-1.0343e+06,986263,-1.40813e+06
909682,-1.03408e+06,985636,-1.40681e+06
909926,-1.03491e+06,984320,-1.40707e+06
909264,-1.03528e+06,982334,-1.40712e+06
909755,-1.03634e+06,980449,-1.40707e+06
909678,-1.03596e+06,978529,-1.40775e+06
909571,-1.03629e+06,976652,-1.40767e+06
909351,-1.03714e+06,974577,-1.40803e+06
909460,-1.03817e+06,972939,-1.40711e+06
910019,-1.03734e+06,971495,-1.40754e+06
910168,-1.03776e+06,970576,-1.407e+06
910205,-1.03854e+06,968262,-1.40672e+06
910495,-1.03932e+06,966519,-1.40678e+06
910201,-1.0389e+06,965836,-1.40651e+06
909945,-1.03998e+06,964613,-1.40673e+06
909854,-1.0405e+06,962580,-1.40688e+06
910309,-1.04067e+06,961243,-1.40751e+06
910830,-1.0408e+06,960695,-1.40645e+06
910631,-1.03998e+06,960645,-1.4071e+06
910207,-1.03956e+06,963077,-1.40631e+06
909733,-1.03795e+06,969736,-1.40721e+06
909708,-1.03499e+06,981571,-1.40689e+06
909367,-1.03102e+06,994662,-1.40597e+06
908419,-1.02828e+06,1.00909e+06,-1.40614e+06
907980,-1.02518e+06,1.02102e+06,-1.40641e+06
907452,-1.02323e+06,1.02669e+06,-1.40723e+06
907763,-1.02338e+06,1.02815e+06,-1.40671e+06
906568,-1.02402e+06,1.02478e+06,-1.40697e+06
906997,-1.02598e+06,1.01855e+06,-1.40751e+06
907385,-1.02796e+06,1.01332e+06,-1.40755e+06
908002,-1.02853e+06,1.00767e+06,-1.4075e+06
907965,-1.0301e+06,1.00308e+06,-1.40859e+06
907630,-1.03164e+06,998761,-1.40819e+06
908153,-1.03263e+06,994071,-1.40867e+06
909069,-1.03434e+06,989010,-1.40788e+06
908603,-1.03577e+06,983206,-1.40802e+06
908590,-1.03706e+06,979410,-1.40811e+06
908846,-1.03719e+06,977930,-1.40789e+06
909236,-1.03763e+06,978017,-1.4078e+06
908509,-1.03721e+06,977934,-1.40889e+06
908554,-1.03685e+06,978224,-1.40811e+06
908180,-1.03647e+06,979679,-1.40766e+06
909433,-1.0363e+06,980089,-1.40755e+06
909317,-1.03656e+06,979841,-1.40877e+06
908351,-1.03751e+06,979785,-1.40902e+06
908413,-1.03761e+06,979621,-1.40857e+06
908831,-1.03749e+06,978307,-1.40776e+06
909533,-1.03798e+06,975605,-1.40787e+06
909141,-1.03873e+06,972361,-1.408e+06
909238,-1.03944e+06,969317,-1.40776e+06
909185,-1.0391e+06,968752,-1.4085e+06
909603,-1.03939e+06,967358,-1.40838e+06
909181,-1.04018e+06,965481,-1.40795e+06
909052,-1.04041e+06,964543,-1.4088e+06
909441,-1.04043e+06,963692,-1.40754e+06
909640,-1.04109e+06,962567,-1.4084e+06
909507,-1.04161e+06,959828,-1.40758e+06
909435,-1.0417e+06,958180,-1.40818e+06
909974,-1.04208e+06,957862,-1.40739e+06
909960,-1.04191e+06,956391,-1.40788e+06
909772,-1.04268e+06,954448,-1.40761e+06
909723,-1.04313e+06,954586,-1.40772e+06
910749,-1.04255e+06,953739,-1.40688e+06
910113,-1.04204e+06,954433,-1.40714e+06
909757,-1.04133e+06,960675,-1.40694e+06
909215,-1.0384e+06,972713,-1.4075e+06
909725,-1.03475e+06,987287,-1.40646e+06
908989,-1.03053e+06,1.00359e+06,-1.40631e+06
907967,-1.02786e+06,1.01523e+06,-1.40687e+06
906927,-1.02555e+06,1.02344e+06,-1.40721e+06
907387,-1.0252e+06,1.02546e+06,-1.40718e+06
907167,-1.02524e+06,1.02246e+06,-1.40821e+06
906724,-1.02731e+06,1.0176e+06,-1.40861e+06
907434,-1.0294e+06,1.01074e+06,-1.40819e+06
908165,-1.03067e+06,1.0067e+06,-1.40776e+06
908174,-1.03116e+06,1.00159e+06,-1.40789e+06
908368,-1.03279e+06,997521,-1.4084e+06
908229,-1.03454e+06,992382,-1.40878e+06
907973,-1.03532e+06,987668,-1.40899e+06
909274,-1.03663e+06,982814,-1.40811e+06
908690,-1.03719e+06,979355,-1.40859e+06
908836,-1.03849e+06,976771,-1.40876e+06
908586,-1.03782e+06,976013,-1.40934e+06
909021,-1.03749e+06,977632,-1.40833e+06
908995,-1.03745e+06,978928,-1.40792e+06
908859,-1.03672e+06,980549,-1.40911e+06
908445,-1.03596e+06,982504,-1.40856e+06
908650,-1.03595e+06,983262,-1.40894e+06
908667,-1.03594e+06,983638,-1.40898e+06
908464,-1.03581e+06,981410,-1.40825e+06
908358,-1.03625e+06,980216,-1.40796e+06
908946,-1.0362e+06,978606,-1.40856e+06
909076,-1.03677e+06,976902,-1.40912e+06
908921,-1.03765e+06,974931,-1.4083e+06
909132,-1.03754e+06,974110,-1.40829e+06
909260,-1.0377e+06,972999,-1.40853e+06
909772,-1.03814e+06,970629,-1.40768e+06
909094,-1.03876e+06,968138,-1.40889e+06
909179,-1.03924e+06,966067,-1.40895e+06
910062,-1.03917e+06,965589,-1.40748e+06
909567,-1.03975e+06,963419,-1.40799e+06
909620,-1.04076e+06,961296,-1.40773e+06
909577,-1.04096e+06,958685,-1.40748e+06
909968,-1.04073e+06,958302,-1.40824e+06
910434,-1.04078e+06,958244,-1.40728e+06
909979,-1.04161e+06,958431,-1.40769e+06
909439,-1.04037e+06,962676,-1.40774e+06
909554,-1.03789e+06,971482,-1.40722e+06
909285,-1.03457e+06,983162,-1.40759e+06
908513,-1.03194e+06,996315,-1.40744e+06
907575,-1.02788e+06,1.01131e+06,-1.40773e+06
907257,-1.02552e+06,1.02119e+06,-1.40729e+06
907571,-1.02368e+06,1.02681e+06,-1.40737e+06
906715,-1.02393e+06,1.02687e+06,-1.40884e+06
906809,-1.02464e+06,1.02277e+06,-1.40825e+06
907385,-1.02601e+06,1.0177e+06,-1.40818e+06
907310,-1.02689e+06,1.01294e+06,-1.40918e+06
907332,-1.02886e+06,1.00661e+06,-1.4086e+06
907696,-1.03063e+06,1.00163e+06,-1.40881e+06
908219,-1.03241e+06,996668,-1.40892e+06
908654,-1.03364e+06,991991,-1.40861e+06
908345,-1.03447e+06,986436,-1.4096e+06
908170,-1.03539e+06,983755,-1.40925e+06
908430,-1.03582e+06,979747,-1.40978e+06
908779,-1.03626e+06,979094,-1.40893e+06
908794,-1.03658e+06,977691,-1.40875e+06
908752,-1.03685e+06,977947,-1.40924e+06
909230,-1.03615e+06,980694,-1.40858e+06
908597,-1.03483e+06,983884,-1.40959e+06
908049,-1.03448e+06,985222,-1.4099e+06
908273,-1.03412e+06,985695,-1.40986e+06
908409,-1.03436e+06,986129,-1.40872e+06
909170,-1.03444e+06,984115,-1.40852e+06
909215,-1.03514e+06,981675,-1.40991e+06
908991,-1.03629e+06,980244,-1.40907e+06
909380,-1.03598e+06,978739,-1.40847e+06
909059,-1.03649e+06,977947,-1.40887e+06
908895,-1.03633e+06,976394,-1.4096e+06
909507,-1.03724e+06,973833,-1.40872e+06
909255,-1.03758e+06,973040,-1.4095e+06
909880,-1.03781e+06,971561,-1.40824e+06
909638,-1.03757e+06,969785,-1.40853e+06
909571,-1.03816e+06,968310,-1.40871e+06
910284,-1.03867e+06,967292,-1.40895e+06
910106,-1.03932e+06,965169,-1.40822e+06
910580,-1.03993e+06,962819,-1.40838e+06
910529,-1.04002e+06,961669,-1.4083e+06
910520,-1.03903e+06,964591,-1.40764e+06
910614,-1.03729e+06,972822,-1.40776e+06
910132,-1.03403e+06,985659,-1.40767e+06
908575,-1.03187e+06,998778,-1.40831e+06
908131,-1.02686e+06,1.01509e+06,-1.40808e+06
907892,-1.02306e+06,1.02542e+06,-1.40859e+06
907737,-1.02169e+06,1.03195e+06,-1.40798e+06
906954,-1.0219e+06,1.03324e+06,-1.40979e+06
906747,-1.02252e+06,1.03036e+06,-1.4091e+06
907442,-1.0234e+06,1.0258e+06,-1.40943e+06
907556,-1.02506e+06,1.01946e+06,-1.40958e+06
907733,-1.02726e+06,1.01208e+06,-1.41026e+06
908430,-1.0291e+06,1.00669e+06,-1.40931e+06
908893,-1.03069e+06,1.00149e+06,-1.40909e+06
908438,-1.03228e+06,997070,-1.4096e+06
909006,-1.03315e+06,991002,-1.40966e+06
909067,-1.03439e+06,987754,-1.40983e+06
909209,-1.03439e+06,984339,-1.41033e+06
909945,-1.03479e+06,983262,-1.4103e+06
908946,-1.03512e+06,982227,-1.41043e+06
909581,-1.0354e+06,981909,-1.40945e+06
909921,-1.03461e+06,982421,-1.40913e+06
909046,-1.03516e+06,984057,-1.41009e+06
909092,-1.03462e+06,984529,-1.41059e+06
909145,-1.03421e+06,985217,-1.40959e+06
909247,-1.03403e+06,984940,-1.40962e+06
909392,-1.03443e+06,984284,-1.4093e+06
909277,-1.03494e+06,982080,-1.40959e+06
909867,-1.03587e+06,980318,-1.40974e+06
909676,-1.03577e+06,978111,-1.4091e+06
909784,-1.03712e+06,975411,-1.40947e+06
909714,-1.03744e+06,973197,-1.40935e+06
910174,-1.03773e+06,972538,-1.40916e+06
911045,-1.03771e+06,971004,-1.40898e+06
909842,-1.03879e+06,968744,-1.41006e+06
910049,-1.03924e+06,966983,-1.40997e+06
911130,-1.03897e+06,964734,-1.40862e+06
910755,-1.03928e+06,963360,-1.40972e+06
910228,-1.04043e+06,962088,-1.41007e+06
910951,-1.03999e+06,960211,-1.40837e+06
911020,-1.03985e+06,959291,-1.40837e+06
911183,-1.04088e+06,959016,-1.40867e+06
910874,-1.04046e+06,961454,-1.40855e+06
910742,-1.03781e+06,968462,-1.40912e+06
910881,-1.03484e+06,981061,-1.40805e+06
909646,-1.03167e+06,994730,-1.40894e+06
908731,-1.02767e+06,1.01072e+06,-1.40918e+06
907986,-1.02404e+06,1.02254e+06,-1.40908e+06
908019,-1.02158e+06,1.03112e+06,-1.4091e+06
907615,-1.02125e+06,1.03217e+06,-1.40881e+06
907196,-1.02264e+06,1.02779e+06,-1.41e+06
907873,-1.02539e+06,1.0225e+06,-1.40925e+06
908223,-1.02675e+06,1.01544e+06,-1.40945e+06
908942,-1.02863e+06,1.00751e+06,-1.40958e+06
908225,-1.03086e+06,1.00101e+06,-1.41008e+06
908336,-1.03313e+06,995894,-1.41002e+06
909454,-1.03359e+06,991371,-1.40984e+06
909699,-1.03455e+06,986570,-1.4103e+06
908929,-1.03659e+06,982663,-1.4104e+06
908912,-1.03777e+06,978864,-1.41049e+06
909172,-1.03679e+06,976917,-1.41006e+06
909840,-1.03693e+06,975187,-1.41045e+06
909613,-1.03741e+06,974596,-1.41004e+06
909676,-1.0379e+06,975061,-1.41042e+06
909810,-1.03772e+06,976013,-1.40965e+06
910337,-1.03725e+06,976989,-1.40958e+06
909143,-1.03757e+06,976635,-1.41094e+06
909598,-1.03798e+06,975684,-1.41088e+06
909687,-1.03824e+06,975029,-1.41017e+06
909852,-1.03809e+06,972672,-1.41016e+06
910036,-1.03872e+06,970284,-1.41037e+06
909539,-1.03873e+06,969605,-1.41038e+06
909837,-1.03952e+06,968040,-1.41012e+06
910445,-1.03955e+06,966344,-1.40995e+06
909793,-1.03999e+06,964050,-1.41019e+06
910224,-1.04032e+06,961932,-1.40988e+06
910584,-1.04067e+06,960402,-1.40967e+06
910153,-1.04129e+06,958835,-1.41046e+06
910079,-1.04224e+06,957218,-1.41008e+06
910424,-1.04228e+06,955879,-1.40973e+06
910705,-1.04225e+06,954738,-1.4102e+06
911331,-1.04276e+06,953274,-1.40963e+06
910932,-1.04286e+06,951073,-1.40947e+06
910968,-1.04282e+06,949755,-1.41003e+06
910972,-1.04324e+06,949615,-1.40913e+06
911168,-1.04305e+06,950019,-1.40979e+06
910518,-1.04201e+06,956886,-1.40926e+06
910690,-1.03906e+06,966675,-1.40895e+06
910091,-1.03572e+06,980389,-1.40933e+06
908999,-1.03177e+06,996432,-1.40851e+06
908483,-1.0289e+06,1.0091e+06,-1.40974e+06
908225,-1.02634e+06,1.0196e+06,-1.40911e+06
907880,-1.02521e+06,1.02371e+06,-1.40986e+06
907761,-1.02531e+06,1.02119e+06,-1.40952e+06
907402,-1.02672e+06,1.01641e+06,-1.41065e+06
907901,-1.02895e+06,1.0095e+06,-1.41002e+06
908464,-1.02979e+06,1.00371e+06,-1.41056e+06
908923,-1.03279e+06,997025,-1.40997e+06
909027,-1.03367e+06,992057,-1.41052e+06
908603,-1.03498e+06,986297,-1.41069e+06
909016,-1.03608e+06,982091,-1.40984e+06
909367,-1.03726e+06,976908,-1.41015e+06
909102,-1.03862e+06,973876,-1.41058e+06
909571,-1.03879e+06,970384,-1.4103e+06
909712,-1.03941e+06,969347,-1.41021e+06
910051,-1.03994e+06,968333,-1.40987e+06
909377,-1.03966e+06,969015,-1.41037e+06
909840,-1.03921e+06,969635,-1.41039e+06
909439,-1.03809e+06,972005,-1.41036e+06
909818,-1.03823e+06,972384,-1.4102e+06
909708,-1.03844e+06,971884,-1.41009e+06
909128,-1.03875e+06,971271,-1.41098e+06
909774,-1.03896e+06,969252,-1.40994e+06
910254,-1.03948e+06,967411,-1.40994e+06
909899,-1.04042e+06,965391,-1.40988e+06
909943,-1.04113e+06,962883,-1.40995e+06
910294,-1.04081e+06,960511,-1.40983e+06
910413,-1.04138e+06,958127,-1.40956e+06
909966,-1.0424e+06,956623,-1.40985e+06
910250,-1.04253e+06,954842,-1.40998e+06
909795,-1.04269e+06,954339,-1.40987e+06
910394,-1.04236e+06,952087,-1.41016e+06
911149,-1.04356e+06,950890,-1.40964e+06
910298,-1.04346e+06,948419,-1.4093e+06
910360,-1.04374e+06,946776,-1.40937e+06
911239,-1.04362e+06,946561,-1.40897e+06
910749,-1.0436e+06,946228,-1.40968e+06
910874,-1.04427e+06,944360,-1.40925e+06
910940,-1.04513e+06,944289,-1.40909e+06
910673,-1.04352e+06,945560,-1.40866e+06
910955,-1.0422e+06,950502,-1.40924e+06
910008,-1.04136e+06,960516,-1.40901e+06
909814,-1.03763e+06,973950,-1.40859e+06
909670,-1.03401e+06,989189,-1.40906e+06
908731,-1.03086e+06,1.0017e+06,-1.40955e+06
908481,-1.02772e+06,1.01246e+06,-1.40891e+06
908008,-1.02618e+06,1.01655e+06,-1.40949e+06
908544,-1.02668e+06,1.01538e+06,-1.40872e+06
907977,-1.02842e+06,1.01034e+06,-1.40995e+06
907933,-1.03075e+06,1.00315e+06,-1.40966e+06
908104,-1.0316e+06,997132,-1.41004e+06
908838,-1.03314e+06,991062,-1.40979e+06
908650,-1.03538e+06,986380,-1.4098e+06
908827,-1.0364e+06,981042,-1.41013e+06
909712,-1.03776e+06,975389,-1.40973e+06
910298,-1.03879e+06,971069,-1.4095e+06
909547,-1.04013e+06,968134,-1.40971e+06
909452,-1.04024e+06,965355,-1.40977e+06
910478,-1.04026e+06,963828,-1.40956e+06
910055,-1.04055e+06,964636,-1.40952e+06
910271,-1.04015e+06,964696,-1.40958e+06
910110,-1.04017e+06,966229,-1.41062e+06
909672,-1.0398e+06,967844,-1.40971e+06
910038,-1.03937e+06,969313,-1.41041e+06
909774,-1.03887e+06,969036,-1.40993e+06
910093,-1.03966e+06,968633,-1.40952e+06
910394,-1.03971e+06,968138,-1.40942e+06
910588,-1.03923e+06,966784,-1.40984e+06
910362,-1.03963e+06,965049,-1.41014e+06
910661,-1.04121e+06,962373,-1.40937e+06
910362,-1.041e+06,960539,-1.40943e+06
911245,-1.04105e+06,959358,-1.40897e+06
911088,-1.04198e+06,956937,-1.40894e+06
910578,-1.04181e+06,955130,-1.41016e+06
910787,-1.04197e+06,954390,-1.40924e+06
911539,-1.04209e+06,952880,-1.4086e+06
911037,-1.04254e+06,951602,-1.40894e+06
910953,-1.04283e+06,949824,-1.40893e+06
911514,-1.04364e+06,948938,-1.4089e+06
912017,-1.04376e+06,947627,-1.40831e+06
911602,-1.04366e+06,945443,-1.40825e+06
911559,-1.04405e+06,943920,-1.40857e+06
911676,-1.04406e+06,944231,-1.40915e+06
911922,-1.04376e+06,944343,-1.40867e+06
911843,-1.04338e+06,948723,-1.40862e+06
911284,-1.04148e+06,957169,-1.40904e+06
910985,-1.03787e+06,971611,-1.40835e+06
910755,-1.03383e+06,986525,-1.40828e+06
909884,-1.03002e+06,1.00181e+06,-1.40892e+06
909336,-1.02778e+06,1.01164e+06,-1.40886e+06
909503,-1.02705e+06,1.01599e+06,-1.4085e+06
909353,-1.0266e+06,1.01538e+06,-1.40883e+06
909638,-1.02898e+06,1.0097e+06,-1.40955e+06
909170,-1.03096e+06,1.00373e+06,-1.40914e+06
909869,-1.0325e+06,995730,-1.40897e+06
909923,-1.03382e+06,991362,-1.40864e+06
910599,-1.03574e+06,985198,-1.40894e+06
910574,-1.0363e+06,981325,-1.4096e+06
910537,-1.03768e+06,975260,-1.41e+06
911274,-1.03884e+06,971811,-1.40868e+06
911549,-1.03952e+06,967745,-1.40889e+06
910699,-1.04034e+06,964050,-1.41007e+06
910912,-1.04132e+06,962567,-1.40869e+06
911188,-1.04046e+06,962350,-1.40959e+06
911164,-1.04079e+06,961961,-1.4091e+06
911439,-1.0406e+06,963713,-1.40905e+06
911158,-1.04021e+06,965884,-1.40869e+06
911139,-1.03961e+06,967607,-1.4087e+06
911574,-1.0398e+06,967140,-1.40896e+06
911529,-1.03995e+06,965605,-1.40884e+06
911115,-1.04023e+06,964958,-1.40847e+06
911539,-1.03991e+06,962806,-1.41e+06
911559,-1.04061e+06,960740,-1.40961e+06
911232,-1.04193e+06,958861,-1.40911e+06
911970,-1.04182e+06,956273,-1.40883e+06
912137,-1.0419e+06,954715,-1.4081e+06
912205,-1.04274e+06,953130,-1.40831e+06
911958,-1.04331e+06,951103,-1.40862e+06
911834,-1.04382e+06,950301,-1.40927e+06
912271,-1.04282e+06,949183,-1.40876e+06
912832,-1.04337e+06,947352,-1.40789e+06
912148,-1.04377e+06,945274,-1.40914e+06
912593,-1.04409e+06,943607,-1.4086e+06
913052,-1.04416e+06,942756,-1.40763e+06
912813,-1.04445e+06,941702,-1.408e+06
913084,-1.04511e+06,940379,-1.4076e+06
913206,-1.04496e+06,940191,-1.40769e+06
913560,-1.04454e+06,940041,-1.40723e+06
913236,-1.04438e+06,940396,-1.40793e+06
912843,-1.04389e+06,944174,-1.40835e+06
912963,-1.04163e+06,955049,-1.4071e+06
912171,-1.03802e+06,968276,-1.40692e+06
911689,-1.03507e+06,984245,-1.40718e+06
910825,-1.03073e+06,998893,-1.40735e+06
910825,-1.02867e+06,1.00798e+06,-1.40737e+06
910245,-1.02733e+06,1.01163e+06,-1.4074e+06
910480,-1.02814e+06,1.01101e+06,-1.40768e+06
910216,-1.02974e+06,1.00524e+06,-1.4078e+06
910567,-1.03106e+06,999006,-1.40793e+06
910768,-1.03259e+06,992571,-1.40878e+06
911422,-1.03499e+06,987308,-1.40772e+06
910938,-1.03566e+06,981452,-1.40826e+06
911022,-1.0369e+06,977378,-1.40938e+06
911994,-1.0386e+06,972092,-1.40801e+06
911748,-1.03892e+06,968035,-1.40778e+06
912184,-1.04009e+06,963911,-1.40813e+06
912150,-1.04071e+06,961974,-1.40934e+06
911915,-1.04073e+06,959972,-1.40823e+06
912284,-1.04052e+06,960406,-1.40872e+06
912246,-1.04123e+06,960810,-1.40816e+06
911902,-1.04032e+06,961775,-1.40898e+06
911808,-1.04013e+06,963785,-1.40822e+06
911888,-1.03965e+06,963734,-1.40862e+06
911734,-1.03968e+06,964666,-1.40866e+06
911541,-1.03999e+06,962941,-1.40842e+06
912301,-1.04064e+06,962450,-1.408e+06
912677,-1.04031e+06,960160,-1.40853e+06
911858,-1.04102e+06,958095,-1.40883e+06
912051,-1.04174e+06,954766,-1.40795e+06
912404,-1.04236e+06,953731,-1.40799e+06
912943,-1.04221e+06,952172,-1.4084e+06
912461,-1.0434e+06,949137,-1.4085e+06
912290,-1.04396e+06,947810,-1.40802e+06
912747,-1.04369e+06,945808,-1.40778e+06
912826,-1.04439e+06,944445,-1.40746e+06
912582,-1.04502e+06,942963,-1.40798e+06
913376,-1.04486e+06,941181,-1.40689e+06
913094,-1.04507e+06,941133,-1.40718e+06
913039,-1.04485e+06,940373,-1.40755e+06
912997,-1.04544e+06,938614,-1.40843e+06
912950,-1.04565e+06,937901,-1.40804e+06
913977,-1.04627e+06,936204,-1.4069e+06
913570,-1.04597e+06,934496,-1.40746e+06
913067,-1.04646e+06,933520,-1.40791e+06
913617,-1.04708e+06,933883,-1.40692e+06
913154,-1.04518e+06,938191,-1.40712e+06
912885,-1.04371e+06,948948,-1.40744e+06
912662,-1.04147e+06,960742,-1.4069e+06
911860,-1.03692e+06,976388,-1.40708e+06
911676,-1.03321e+06,989693,-1.40707e+06
911022,-1.03117e+06,1.00072e+06,-1.40738e+06
